"2009-07-24 00:00:00" 219 7758
"2009-07-25 00:00:00" 214 6502
"2009-07-26 00:00:00" 221 6471
"2009-07-27 00:00:00" 174 9242
"2009-07-28 00:00:00" 221 7852
"2009-07-29 00:00:00" 214 8269
"2009-07-30 00:00:00" 238 7777
"2009-07-31 00:00:00" 209 8201
"2009-08-01 00:00:00" 227 6083
"2009-08-02 00:00:00" 182 3769
"2009-08-09 00:00:00" 124 10315
"2009-08-10 00:00:00" 209 8106
"2009-08-11 00:00:00" 235 7316
"2009-08-12 00:00:00" 321 6165
"2009-08-13 00:00:00" 296 6514
"2009-08-14 00:00:00" 271 7066
"2009-08-15 00:00:00" 262 5677
"2009-08-16 00:00:00" 145 8177
"2009-08-17 00:00:00" 193 8989
"2009-08-18 00:00:00" 287 7014
"2009-08-19 00:00:00" 331 6336
"2009-08-20 00:00:00" 359 5891
"2009-08-21 00:00:00" 414 5284
"2009-08-22 00:00:00" 539 3709
"2009-08-23 00:00:00" 563 3653
"2009-08-24 00:00:00" 464 4722
"2009-08-25 00:00:00" 372 5613
"2009-08-26 00:00:00" 405 5200
"2009-08-27 00:00:00" 425 5215
"2009-08-28 00:00:00" 430 5061
"2009-08-29 00:00:00" 468 4014
"2009-08-30 00:00:00" 517 3758
"2009-08-31 00:00:00" 468 4691
"2009-09-01 00:00:00" 496 4601
"2009-09-02 00:00:00" 459 4706
"2009-09-03 00:00:00" 520 4402
"2009-09-04 00:00:00" 477 4597
"2009-09-05 00:00:00" 490 3808
"2009-09-06 00:00:00" 616 3088
"2009-09-07 00:00:00" 471 4332
"2009-09-08 00:00:00" 469 4738
"2009-09-09 00:00:00" 423 5135
"2009-09-10 00:00:00" 451 5082
"2009-09-11 00:00:00" 448 4901
"2009-09-12 00:00:00" 537 3672
"2009-09-13 00:00:00" 627 3596
"2009-09-14 00:00:00" 665 3712
"2009-09-15 00:00:00" 676 3690
"2009-09-16 00:00:00" 862 3030
"2009-09-17 00:00:00" 913 2858
"2009-09-18 00:00:00" 1125 2331
"2009-09-19 00:00:00" 1044 2197
"2009-09-20 00:00:00" 915 2517
"2009-09-21 00:00:00" 1156 2390
"2009-09-22 00:00:00" 1209 2389
"2009-09-23 00:00:00" 1224 2183
"2009-09-24 00:00:00" 1119 2574
"2009-09-25 00:00:00" 1228 2243
"2009-09-26 00:00:00" 1104 2188
"2009-09-27 00:00:00" 1173 2241
"2009-09-28 00:00:00" 1202 2435
"2009-09-29 00:00:00" 1090 2675
"2009-09-30 00:00:00" 1048 2822
"2009-10-01 00:00:00" 991 3036
"2009-10-02 00:00:00" 948 3008
"2009-10-03 00:00:00" 989 2454
"2009-10-04 00:00:00" 1279 2060
"2009-10-05 00:00:00" 944 3035
"2009-10-06 00:00:00" 841 2832
"2009-10-08 00:00:00" 871 3123
"2009-10-09 00:00:00" 1094 2674
"2009-10-10 00:00:00" 1159 2177
"2009-10-11 00:00:00" 1271 2032
"2009-10-12 00:00:00" 1032 2681
"2009-10-13 00:00:00" 973 3032
"2009-10-14 00:00:00" 806 3464
"2009-10-15 00:00:00" 801 3523
"2009-10-16 00:00:00" 1007 2848
"2009-10-17 00:00:00" 964 2551
"2009-10-18 00:00:00" 935 2567
"2009-10-19 00:00:00" 842 3322
"2009-10-20 00:00:00" 788 3406
"2009-10-21 00:00:00" 754 3151
"2009-10-22 00:00:00" 943 3138
"2009-10-23 00:00:00" 959 2896
"2009-10-24 00:00:00" 1077 2310
"2009-10-25 00:00:00" 1101 2369
"2009-10-26 00:00:00" 979 2992
"2009-10-27 00:00:00" 929 3227
"2009-10-28 00:00:00" 861 3436
"2009-10-29 00:00:00" 922 3254
"2009-10-30 00:00:00" 930 3074
"2009-10-31 00:00:00" 924 2468
"2009-11-01 00:00:00" 1078 2350
"2009-11-02 00:00:00" 980 2994
"2009-11-03 00:00:00" 983 3127
"2009-11-04 00:00:00" 961 3226
"2009-11-05 00:00:00" 999 3177
"2009-11-06 00:00:00" 1022 2958
"2009-11-07 00:00:00" 1124 2337
"2009-11-08 00:00:00" 1205 2281
"2009-11-10 00:00:00" 100 2087
"2009-11-11 00:00:00" 275 6263
"2009-11-12 00:00:00" 1360 2132
"2009-11-13 00:00:00" 1019 2525
"2009-11-14 00:00:00" 1117 1994
"2009-11-15 00:00:00" 1188 1945
"2009-11-16 00:00:00" 913 2820
"2009-11-17 00:00:00" 793 3121
"2009-11-18 00:00:00" 934 2851
"2009-11-19 00:00:00" 967 2774
"2009-11-20 00:00:00" 1100 2365
"2009-11-21 00:00:00" 1233 1869
"2009-11-22 00:00:00" 1148 2139
"2009-11-23 00:00:00" 1072 2499
"2009-11-24 00:00:00" 1088 2482
"2009-11-25 00:00:00" 1110 2430
"2009-11-26 00:00:00" 1376 1904
"2009-11-27 00:00:00" 1398 1842
"2009-11-28 00:00:00" 1405 1678
"2009-11-29 00:00:00" 1376 1787
"2009-11-30 00:00:00" 1164 2317
"2009-12-01 00:00:00" 1136 2550
"2009-12-02 00:00:00" 1266 2353
"2009-12-03 00:00:00" 1294 2245
"2009-12-04 00:00:00" 1291 2209
"2009-12-05 00:00:00" 1332 1911
"2009-12-06 00:00:00" 1323 1980
"2009-12-07 00:00:00" 1215 2322
"2009-12-08 00:00:00" 1366 2120
"2009-12-09 00:00:00" 1293 2257
"2009-12-10 00:00:00" 1358 2212
"2009-12-11 00:00:00" 884 2908
"2009-12-12 00:00:00" 1579 1617
"2009-12-13 00:00:00" 1542 1739
"2009-12-14 00:00:00" 1332 2191
"2009-12-15 00:00:00" 1493 2026
"2009-12-16 00:00:00" 1550 1960
"2009-12-17 00:00:00" 816 1238
"2009-12-21 00:00:00" 441 3223
"2009-12-22 00:00:00" 1745 1796
"2009-12-23 00:00:00" 1938 1628
"2009-12-24 00:00:00" 1887 1561
"2009-12-25 00:00:00" 1955 1269
"2009-12-26 00:00:00" 2056 1219
"2009-12-27 00:00:00" 2055 1366
"2009-12-28 00:00:00" 2068 1542
"2009-12-29 00:00:00" 2390 1493
"2009-12-30 00:00:00" 2638 1611
"2009-12-31 00:00:00" 1959 1859
"2010-01-01 00:00:00" 2107 1572
"2010-01-02 00:00:00" 2573 1403
"2010-01-03 00:00:00" 2520 1524
"2010-01-04 00:00:00" 2633 1612
"2010-01-05 00:00:00" 2327 1820
"2010-01-06 00:00:00" 1855 2263
"2010-01-07 00:00:00" 2492 1836
"2010-01-08 00:00:00" 2720 1672
"2010-01-09 00:00:00" 2972 1402
"2010-01-10 00:00:00" 2663 1527
"2010-01-11 00:00:00" 2415 1880
"2010-01-12 00:00:00" 2249 2016
"2010-01-13 00:00:00" 1463 2445
"2010-01-14 00:00:00" 2308 1951
"2010-01-15 00:00:00" 2829 1608
"2010-01-16 00:00:00" 3054 1346
"2010-01-17 00:00:00" 2908 1512
"2010-01-18 00:00:00" 2553 1818
"2010-01-19 00:00:00" 2457 1923
"2010-01-20 00:00:00" 2286 2000
"2010-01-21 00:00:00" 2486 1933
"2010-01-22 00:00:00" 2760 1710
"2010-01-23 00:00:00" 3112 1367
"2010-01-24 00:00:00" 3070 1488
"2010-01-25 00:00:00" 2580 1893
"2010-01-26 00:00:00" 2502 1976
"2010-01-27 00:00:00" 2526 1899
"2010-01-28 00:00:00" 2549 1928
"2010-01-29 00:00:00" 3110 1620
"2010-01-30 00:00:00" 3139 1434
"2010-01-31 00:00:00" 2962 1641
"2010-02-01 00:00:00" 2728 1826
"2010-02-02 00:00:00" 2808 1836
"2010-02-03 00:00:00" 2857 1769
"2010-02-04 00:00:00" 3055 1672
"2010-02-05 00:00:00" 3448 1496
"2010-02-06 00:00:00" 3577 1313
"2010-02-07 00:00:00" 3522 1391
"2010-02-08 00:00:00" 3100 1649
"2010-02-09 00:00:00" 2635 1543
"2010-02-10 00:00:00" 3067 1793
"2010-02-11 00:00:00" 3065 1743
"2010-02-12 00:00:00" 3677 1447
"2010-02-13 00:00:00" 3895 1222
"2010-02-14 00:00:00" 3593 1249
"2010-02-15 00:00:00" 3290 1510
"2010-02-16 00:00:00" 3346 1610
"2010-02-17 00:00:00" 729 2567
"2010-02-18 00:00:00" 3575 1662
"2010-02-19 00:00:00" 3826 1483
"2010-02-20 00:00:00" 4325 1216
"2010-02-21 00:00:00" 4047 1332
"2010-02-22 00:00:00" 2643 774
"2010-02-23 00:00:00" 926 3499
"2010-02-24 00:00:00" 3729 1583
"2010-02-25 00:00:00" 4304 1414
"2010-02-26 00:00:00" 4572 1316
"2010-02-27 00:00:00" 4683 1179
"2010-02-28 00:00:00" 4051 1360
"2010-03-01 00:00:00" 3565 1651
"2010-03-02 00:00:00" 3408 1730
"2010-03-03 00:00:00" 3485 1605
"2010-03-04 00:00:00" 3802 1536
"2010-03-05 00:00:00" 4087 1431
"2010-03-06 00:00:00" 4611 1155
"2010-03-07 00:00:00" 4210 1363
"2010-03-08 00:00:00" 3759 1585
"2010-03-09 00:00:00" 3917 1508
"2010-03-10 00:00:00" 3797 1567
"2010-03-11 00:00:00" 3834 1513
"2010-03-12 00:00:00" 4324 1365
"2010-03-13 00:00:00" 4815 1135
"2010-03-14 00:00:00" 4302 1185
"2010-03-15 00:00:00" 4536 1342
"2010-03-16 00:00:00" 4488 1362
"2010-03-17 00:00:00" 3989 1466
"2010-03-18 00:00:00" 4264 1416
"2010-03-19 00:00:00" 4532 1312
"2010-03-20 00:00:00" 4948 1124
"2010-03-21 00:00:00" 4841 1235
"2010-03-22 00:00:00" 4428 1430
"2010-03-23 00:00:00" 4264 1510
"2010-03-24 00:00:00" 4698 1365
"2010-03-25 00:00:00" 4824 1341
"2010-03-26 00:00:00" 4117 1251
"2010-03-27 00:00:00" 148 1054
"2010-03-28 00:00:00" 4728 1287
"2010-03-29 00:00:00" 4361 1534
"2010-03-30 00:00:00" 4269 1573
"2010-03-31 00:00:00" 4535 1470
"2010-04-01 00:00:00" 3123 1501
"2010-04-02 00:00:00" 5598 1123
"2010-04-03 00:00:00" 5194 1154
"2010-04-04 00:00:00" 5394 1145
"2010-04-05 00:00:00" 4469 1453
"2010-04-06 00:00:00" 4650 1466
"2010-04-07 00:00:00" 4519 1510
"2010-04-08 00:00:00" 4444 1523
"2010-04-09 00:00:00" 4819 1383
"2010-04-10 00:00:00" 5542 1126
"2010-04-11 00:00:00" 5442 1144
"2010-04-12 00:00:00" 5001 1358
"2010-04-13 00:00:00" 4781 1464
"2010-04-14 00:00:00" 5127 1377
"2010-04-15 00:00:00" 4951 1423
"2010-04-16 00:00:00" 5307 1292
"2010-04-17 00:00:00" 5713 1093
"2010-04-18 00:00:00" 5597 1171
"2010-04-19 00:00:00" 4851 1435
"2010-04-20 00:00:00" 5061 1398
"2010-04-21 00:00:00" 5216 1385
"2010-04-22 00:00:00" 5426 1383
"2010-04-23 00:00:00" 5404 1308
"2010-04-24 00:00:00" 5939 1113
"2010-04-25 00:00:00" 5933 1157
"2010-04-26 00:00:00" 4961 1466
"2010-04-27 00:00:00" 4688 1500
"2010-04-28 00:00:00" 5050 1460
"2010-04-29 00:00:00" 4976 1443
"2010-04-30 00:00:00" 5199 1329
"2010-05-01 00:00:00" 5835 1115
"2010-05-02 00:00:00" 6081 1103
"2010-05-03 00:00:00" 5052 1384
"2010-05-04 00:00:00" 4677 1480
"2010-05-05 00:00:00" 5085 1423
"2010-05-06 00:00:00" 5259 1372
"2010-05-07 00:00:00" 5884 1208
"2010-05-08 00:00:00" 6086 1066
"2010-05-09 00:00:00" 6088 1064
"2010-05-10 00:00:00" 5032 1429
"2010-05-11 00:00:00" 1946 2498
"2010-05-12 00:00:00" 5440 1361
"2010-05-13 00:00:00" 5487 1351
"2010-05-14 00:00:00" 4510 1420
"2010-05-15 00:00:00" 6365 1045
"2010-05-16 00:00:00" 6606 1076
"2010-05-17 00:00:00" 5036 1278
"2010-05-18 00:00:00" 6163 1253
"2010-05-19 00:00:00" 5600 1385
"2010-05-20 00:00:00" 6141 1285
"2010-05-21 00:00:00" 6720 1160
"2010-05-22 00:00:00" 6955 1010
"2010-05-23 00:00:00" 6764 1080
"2010-05-24 00:00:00" 4526 1491
"2010-05-25 00:00:00" 6549 1271
"2010-05-26 00:00:00" 6570 1289
"2010-05-27 00:00:00" 7115 1175
"2010-05-28 00:00:00" 7780 1054
"2010-05-29 00:00:00" 7590 979
"2010-05-30 00:00:00" 7227 1017
"2010-05-31 00:00:00" 6674 1209
"2010-06-01 00:00:00" 7183 1182
"2010-06-02 00:00:00" 7114 1205
"2010-06-03 00:00:00" 7537 1166
"2010-06-04 00:00:00" 7535 1123
"2010-06-05 00:00:00" 7827 979
"2010-06-06 00:00:00" 7828 1065
"2010-06-07 00:00:00" 7572 1187
"2010-06-09 00:00:00" 6299 1287
"2010-06-10 00:00:00" 7584 1227
"2010-06-11 00:00:00" 7636 1159
"2010-06-12 00:00:00" 8714 977
"2010-06-13 00:00:00" 7888 1045
"2010-06-14 00:00:00" 7943 1148
"2010-06-15 00:00:00" 7662 1285
"2010-06-16 00:00:00" 8248 1174
"2010-06-17 00:00:00" 8176 1163
"2010-06-18 00:00:00" 8444 1083
"2010-06-19 00:00:00" 8120 1006
"2010-06-20 00:00:00" 8779 1019
"2010-06-21 00:00:00" 8520 1093
"2010-06-22 00:00:00" 7953 1174
"2010-06-23 00:00:00" 8410 1138
"2010-06-24 00:00:00" 9320 1051
"2010-06-25 00:00:00" 9081 1052
"2010-06-26 00:00:00" 9495 895
"2010-06-27 00:00:00" 9668 1031
"2010-06-28 00:00:00" 8952 1073
"2010-06-29 00:00:00" 9281 1028
"2010-06-30 00:00:00" 9103 1043
"2010-07-01 00:00:00" 9069 1032
"2010-07-02 00:00:00" 8523 1090
"2010-07-03 00:00:00" 8489 1002
"2010-07-04 00:00:00" 8008 996
"2010-07-05 00:00:00" 8441 1063
"2010-07-06 00:00:00" 9024 1062
"2010-07-07 00:00:00" 10038 996
"2010-07-08 00:00:00" 8502 1176
"2010-07-09 00:00:00" 9131 1051
"2010-07-10 00:00:00" 8771 960
"2010-07-11 00:00:00" 9439 995
"2010-07-12 00:00:00" 7518 1258
"2010-07-13 00:00:00" 7650 1274
"2010-07-14 00:00:00" 7665 1250
"2010-07-15 00:00:00" 2537 1251
"2010-07-16 00:00:00" 2984 1060
"2010-07-17 00:00:00" 3029 938
"2010-07-18 00:00:00" 2840 981
"2010-07-19 00:00:00" 2369 1249
"2010-07-20 00:00:00" 2359 1295
"2010-07-21 00:00:00" 2425 1321
"2010-07-22 00:00:00" 2574 1249
"2010-07-23 00:00:00" 2743 1161
"2010-07-24 00:00:00" 2816 1019
"2010-07-25 00:00:00" 2789 1043
"2010-07-26 00:00:00" 2375 1350
"2010-07-27 00:00:00" 2474 1313
"2010-07-28 00:00:00" 2438 1358
"2010-07-29 00:00:00" 2494 1306
"2010-07-30 00:00:00" 2519 1278
"2010-07-31 00:00:00" 2807 1033
"2010-08-01 00:00:00" 2244 1208
"2010-08-02 00:00:00" 2329 1365
"2010-08-03 00:00:00" 2301 1402
"2010-08-04 00:00:00" 2134 1501
"2010-08-05 00:00:00" 2380 1273
"2010-08-06 00:00:00" 2625 1224
"2010-08-07 00:00:00" 2842 1027
"2010-08-08 00:00:00" 2958 1041
"2010-08-09 00:00:00" 2844 1190
"2010-08-10 00:00:00" 3281 1098
"2010-08-11 00:00:00" 3996 923
"2010-08-12 00:00:00" 3467 1038
"2010-08-13 00:00:00" 3558 1008
"2010-08-14 00:00:00" 3557 910
"2010-08-15 00:00:00" 3503 945
"2010-08-16 00:00:00" 3162 1078
"2010-08-17 00:00:00" 2993 1168
"2010-08-18 00:00:00" 2668 1266
"2010-08-19 00:00:00" 2792 1214
"2010-08-20 00:00:00" 2955 1136
"2010-08-21 00:00:00" 3246 978
"2010-08-22 00:00:00" 3172 1021
"2010-08-23 00:00:00" 2681 1272
"2010-08-24 00:00:00" 2519 1365
"2010-08-25 00:00:00" 2654 1284
"2010-08-26 00:00:00" 2819 1234
"2010-08-27 00:00:00" 2942 1154
"2010-08-28 00:00:00" 3069 1049
"2010-08-29 00:00:00" 3241 1037
"2010-08-30 00:00:00" 3073 1164
"2010-08-31 00:00:00" 2957 1228
"2010-09-01 00:00:00" 4419 1413
"2010-09-02 00:00:00" 5703 1025
"2010-09-03 00:00:00" 6368 1102
"2010-09-04 00:00:00" 6474 1009
"2010-09-05 00:00:00" 7271 910
"2010-09-06 00:00:00" 7570 994
"2010-09-07 00:00:00" 8043 976
"2010-09-08 00:00:00" 8089 983
"2010-09-09 00:00:00" 7008 1103
"2010-09-10 00:00:00" 5642 1155
"2010-09-11 00:00:00" 6954 988
"2010-09-12 00:00:00" 7592 1034
"2010-09-13 00:00:00" 7133 1032
"2010-09-14 00:00:00" 6602 1107
"2010-09-15 00:00:00" 7317 1059
"2010-09-16 00:00:00" 6932 1114
"2010-09-17 00:00:00" 6833 1063
"2010-09-18 00:00:00" 6611 1006
"2010-09-19 00:00:00" 6200 1131
"2010-09-20 00:00:00" 5467 1326
"2010-09-21 00:00:00" 5064 1413
"2010-09-22 00:00:00" 4932 1459
"2010-09-23 00:00:00" 5149 1443
"2010-09-24 00:00:00" 5322 1378
"2010-09-25 00:00:00" 6323 1095
"2010-09-26 00:00:00" 5720 1182
"2010-09-27 00:00:00" 4962 1530
"2010-09-28 00:00:00" 4575 1513
"2010-09-29 00:00:00" 4984 1357
"2010-09-30 00:00:00" 4871 1425
"2010-10-01 00:00:00" 5068 1321
"2010-10-02 00:00:00" 6170 1128
"2010-10-03 00:00:00" 5668 1352
"2010-10-04 00:00:00" 4581 1453
"2010-10-05 00:00:00" 4500 1434
"2010-10-06 00:00:00" 4291 1256
"2010-10-07 00:00:00" 4677 1413
"2010-10-08 00:00:00" 5800 1297
"2010-10-09 00:00:00" 5906 1161
"2010-10-10 00:00:00" 5483 1200
"2010-10-11 00:00:00" 4729 1460
"2010-10-12 00:00:00" 4846 1395
"2010-10-13 00:00:00" 4721 1365
"2010-10-14 00:00:00" 4928 1500
"2010-10-15 00:00:00" 5309 1267
"2010-10-16 00:00:00" 6011 1146
"2010-10-17 00:00:00" 5673 1179
"2010-10-18 00:00:00" 4530 1382
"2010-10-19 00:00:00" 4563 1296
"2010-10-20 00:00:00" 4072 1518
"2010-10-21 00:00:00" 4157 1402
"2010-10-22 00:00:00" 4876 1155
"2010-10-23 00:00:00" 5722 1195
"2010-10-24 00:00:00" 5152 1054
"2010-10-25 00:00:00" 4456 1323
"2010-10-26 00:00:00" 4561 1550
"2010-10-27 00:00:00" 4138 1484
"2010-10-28 00:00:00" 4511 1567
"2010-10-29 00:00:00" 5141 1362
"2010-10-30 00:00:00" 5537 1197
"2010-10-31 00:00:00" 5103 1116
"2010-11-01 00:00:00" 4036 1262
"2010-11-02 00:00:00" 4073 1541
"2010-11-03 00:00:00" 4273 1315
"2010-11-04 00:00:00" 3848 1285
"2010-11-05 00:00:00" 4586 1175
"2010-11-06 00:00:00" 5275 1143
"2010-11-07 00:00:00" 5262 1079
"2010-11-08 00:00:00" 3817 1144
"2010-11-09 00:00:00" 4449 1206
"2010-11-10 00:00:00" 3939 1367
"2010-11-11 00:00:00" 4107 1319
"2010-11-12 00:00:00" 4668 1356
"2010-11-13 00:00:00" 5827 1189
"2010-11-14 00:00:00" 4981 1150
"2010-11-15 00:00:00" 4902 1076
"2010-11-16 00:00:00" 5217 1052
"2010-11-17 00:00:00" 4976 1050
"2010-11-18 00:00:00" 4610 1286
"2010-11-19 00:00:00" 5570 1404
"2010-11-20 00:00:00" 6097 1220
"2010-11-21 00:00:00" 5106 1474
"2010-11-22 00:00:00" 4708 1692
"2010-11-23 00:00:00" 4609 1805
"2010-11-24 00:00:00" 4013 1883
"2010-11-25 00:00:00" 4798 1785
"2010-11-26 00:00:00" 5380 1653
"2010-11-27 00:00:00" 5833 1384
"2010-11-28 00:00:00" 4955 1455
"2010-11-29 00:00:00" 4519 1389
"2010-11-30 00:00:00" 4131 1497
"2010-12-01 00:00:00" 4683 1505
"2010-12-02 00:00:00" 4449 1372
"2010-12-03 00:00:00" 5039 1269
"2010-12-04 00:00:00" 5726 1075
"2010-12-05 00:00:00" 5576 1057
"2010-12-06 00:00:00" 5521 1019
"2010-12-07 00:00:00" 6116 1544
"2010-12-08 00:00:00" 5594 1642
"2010-12-09 00:00:00" 5712 1595
"2010-12-10 00:00:00" 6411 1398
"2010-12-11 00:00:00" 7029 1207
"2010-12-12 00:00:00" 6435 1361
"2010-12-13 00:00:00" 6210 1530
"2010-12-14 00:00:00" 6252 1537
"2010-12-15 00:00:00" 6746 1407
"2010-12-16 00:00:00" 6377 1497
"2010-12-17 00:00:00" 6895 1328
"2010-12-18 00:00:00" 6880 1181
"2010-12-19 00:00:00" 7052 1253
"2010-12-20 00:00:00" 7130 1371
"2010-12-21 00:00:00" 6688 1465
"2010-12-22 00:00:00" 7122 1352
"2010-12-23 00:00:00" 7194 1304
"2010-12-24 00:00:00" 6997 1263
"2010-12-25 00:00:00" 7018 1068
"2010-12-26 00:00:00" 8339 1068
"2010-12-27 00:00:00" 7497 1275
"2010-12-28 00:00:00" 8253 1194
"2010-12-29 00:00:00" 7896 1312
"2010-12-30 00:00:00" 7854 1262
"2010-12-31 00:00:00" 6100 1530
"2011-01-01 00:00:00" 6672 1188
"2011-01-02 00:00:00" 7440 1180
"2011-01-03 00:00:00" 7129 1370
"2011-01-04 00:00:00" 7222 1383
"2011-01-05 00:00:00" 7090 1423
"2011-01-06 00:00:00" 6977 1455
"2011-01-07 00:00:00" 7446 1345
"2011-01-08 00:00:00" 7840 1217
"2011-01-09 00:00:00" 7359 1305
"2011-01-10 00:00:00" 6807 1506
"2011-01-11 00:00:00" 6569 1605
"2011-01-12 00:00:00" 6349 1564
"2011-01-13 00:00:00" 6451 1572
"2011-01-14 00:00:00" 7466 1348
"2011-01-15 00:00:00" 8243 1121
"2011-01-16 00:00:00" 7600 1269
"2011-01-17 00:00:00" 6803 1508
"2011-01-18 00:00:00" 6444 1585
"2011-01-19 00:00:00" 6568 1570
"2011-01-20 00:00:00" 6703 1556
"2011-01-21 00:00:00" 6852 1476
"2011-01-22 00:00:00" 7722 1234
"2011-01-23 00:00:00" 7478 1365
"2011-01-24 00:00:00" 6491 1572
"2011-01-25 00:00:00" 6712 1597
"2011-01-26 00:00:00" 6791 1554
"2011-01-27 00:00:00" 7202 1507
"2011-01-28 00:00:00" 7732 1360
"2011-01-29 00:00:00" 8149 1204
"2011-01-30 00:00:00" 7962 1290
"2011-01-31 00:00:00" 6804 1562
"2011-02-01 00:00:00" 6898 1566
"2011-02-02 00:00:00" 7483 1520
"2011-02-03 00:00:00" 7671 1448
"2011-02-04 00:00:00" 8583 1269
"2011-02-05 00:00:00" 8735 1190
"2011-02-06 00:00:00" 8051 1425
"2011-02-07 00:00:00" 6940 1530
"2011-02-08 00:00:00" 7140 1548
"2011-02-09 00:00:00" 6901 1579
"2011-02-10 00:00:00" 7555 1502
"2011-02-11 00:00:00" 8011 1402
"2011-02-12 00:00:00" 8788 1199
"2011-02-13 00:00:00" 8236 1421
"2011-02-14 00:00:00" 8311 1361
"2011-02-15 00:00:00" 7928 1420
"2011-02-16 00:00:00" 7792 1490
"2011-02-17 00:00:00" 7537 1519
"2011-02-18 00:00:00" 8812 1299
"2011-02-19 00:00:00" 7975 1333
"2011-02-20 00:00:00" 7586 1478
"2011-02-21 00:00:00" 8078 1504
"2011-02-22 00:00:00" 8024 1553
"2011-02-23 00:00:00" 8075 1498
"2011-02-24 00:00:00" 7738 1574
"2011-02-25 00:00:00" 8482 1454
"2011-02-26 00:00:00" 6473 1507
"2011-02-27 00:00:00" 7166 1583
"2011-02-28 00:00:00" 6692 1679
"2011-03-01 00:00:00" 7036 1641
"2011-03-02 00:00:00" 6999 1659
"2011-03-03 00:00:00" 7110 1610
"2011-03-04 00:00:00" 8893 1316
"2011-03-05 00:00:00" 9000 1197
"2011-03-06 00:00:00" 8317 1330
"2011-03-07 00:00:00" 7709 1483
"2011-03-08 00:00:00" 7966 1503
"2011-03-09 00:00:00" 7831 1544
"2011-03-10 00:00:00" 8071 1536
"2011-03-11 00:00:00" 8581 1546
"2011-03-12 00:00:00" 9359 1291
"2011-03-13 00:00:00" 8298 1434
"2011-03-14 00:00:00" 8014 1546
"2011-03-15 00:00:00" 7987 1575
"2011-03-16 00:00:00" 8661 1454
"2011-03-17 00:00:00" 7797 1560
"2011-03-18 00:00:00" 9080 1353
"2011-03-19 00:00:00" 10353 1156
"2011-03-20 00:00:00" 9254 1369
"2011-03-21 00:00:00" 8232 1552
"2011-03-22 00:00:00" 8606 1510
"2011-03-23 00:00:00" 8251 1574
"2011-03-24 00:00:00" 8421 1549
"2011-03-25 00:00:00" 9096 1400
"2011-03-26 00:00:00" 9450 1313
"2011-03-27 00:00:00" 9081 1434
"2011-03-28 00:00:00" 8419 1570
"2011-03-29 00:00:00" 8588 1573
"2011-03-30 00:00:00" 8234 1595
"2011-03-31 00:00:00" 8380 1593
"2011-04-01 00:00:00" 8665 1490
"2011-04-02 00:00:00" 9429 1313
"2011-04-03 00:00:00" 8734 1465
"2011-04-04 00:00:00" 7983 1637
"2011-04-05 00:00:00" 8127 1585
"2011-04-06 00:00:00" 6765 1698
"2011-04-07 00:00:00" 7840 1676
"2011-04-08 00:00:00" 8962 1433
"2011-04-09 00:00:00" 9382 1299
"2011-04-10 00:00:00" 8600 1487
"2011-04-11 00:00:00" 7927 1651
"2011-04-12 00:00:00" 8156 1604
"2011-04-13 00:00:00" 7986 1500
"2011-04-14 00:00:00" 8281 1438
"2011-04-15 00:00:00" 9746 1377
"2011-04-16 00:00:00" 10109 1297
"2011-04-17 00:00:00" 10068 1320
"2011-04-18 00:00:00" 9450 1448
"2011-04-19 00:00:00" 10256 1397
"2011-04-20 00:00:00" 10414 1394
"2011-04-21 00:00:00" 10892 1270
"2011-04-22 00:00:00" 11160 1216
"2011-04-23 00:00:00" 10844 1202
"2011-04-24 00:00:00" 10173 1352
"2011-04-25 00:00:00" 9381 1497
"2011-04-26 00:00:00" 9630 1435
"2011-04-27 00:00:00" 9526 1576
"2011-04-28 00:00:00" 9762 1493
"2011-04-29 00:00:00" 9220 1507
"2011-04-30 00:00:00" 9681 1314
"2011-05-01 00:00:00" 9449 1471
"2011-05-02 00:00:00" 8781 1670
"2011-05-03 00:00:00" 9045 1553
"2011-05-04 00:00:00" 9470 1508
"2011-05-05 00:00:00" 8993 1532
"2011-05-06 00:00:00" 9919 1391
"2011-05-07 00:00:00" 10730 1259
"2011-05-08 00:00:00" 10314 1352
"2011-05-09 00:00:00" 9455 1509
"2011-05-10 00:00:00" 9247 1482
"2011-05-11 00:00:00" 9305 1562
"2011-05-12 00:00:00" 9910 1486
"2011-05-13 00:00:00" 9943 1370
"2011-05-14 00:00:00" 10691 1308
"2011-05-15 00:00:00" 12030 1279
"2011-05-16 00:00:00" 11390 1326
"2011-05-17 00:00:00" 10559 1378
"2011-05-18 00:00:00" 9583 1554
"2011-05-19 00:00:00" 9597 1533
"2011-05-20 00:00:00" 10256 1433
"2011-05-21 00:00:00" 10489 1368
"2011-05-22 00:00:00" 9828 1503
"2011-05-23 00:00:00" 9296 1576
"2011-05-24 00:00:00" 9493 1581
"2011-05-25 00:00:00" 9285 1572
"2011-05-26 00:00:00" 9656 1539
"2011-05-27 00:00:00" 10555 1381
"2011-05-28 00:00:00" 11040 1297
"2011-05-29 00:00:00" 9924 1416
"2011-05-30 00:00:00" 10031 1473
"2011-05-31 00:00:00" 10461 1462
"2011-06-01 00:00:00" 11607 1327
"2011-06-02 00:00:00" 11802 1316
"2011-06-03 00:00:00" 12038 1273
"2011-06-04 00:00:00" 12013 1207
"2011-06-05 00:00:00" 10627 1404
"2011-06-06 00:00:00" 10337 1502
"2011-06-07 00:00:00" 10659 1481
"2011-06-08 00:00:00" 10778 1445
"2011-06-09 00:00:00" 10505 1482
"2011-06-10 00:00:00" 11270 1328
"2011-06-11 00:00:00" 11220 1238
"2011-06-12 00:00:00" 11099 1363
"2011-06-13 00:00:00" 10701 1435
"2011-06-14 00:00:00" 11162 1386
"2011-06-15 00:00:00" 11752 1375
"2011-06-16 00:00:00" 11587 1388
"2011-06-17 00:00:00" 11494 1356
"2011-06-18 00:00:00" 11209 1252
"2011-06-19 00:00:00" 11830 1276
"2011-06-20 00:00:00" 11712 1352
"2011-06-21 00:00:00" 12067 1344
"2011-06-22 00:00:00" 12346 1380
"2011-06-23 00:00:00" 12016 1384
"2011-06-24 00:00:00" 11897 1344
"2011-06-25 00:00:00" 11580 1274
"2011-06-26 00:00:00" 11651 1430
"2011-06-27 00:00:00" 11787 1388
"2011-06-28 00:00:00" 12196 1389
"2011-06-29 00:00:00" 12410 1374
"2011-06-30 00:00:00" 11829 1408
"2011-07-01 00:00:00" 11385 1402
"2011-07-02 00:00:00" 10933 1302
"2011-07-03 00:00:00" 11281 1318
"2011-07-04 00:00:00" 11250 1371
"2011-07-05 00:00:00" 11120 1480
"2011-07-06 00:00:00" 11863 1433
"2011-07-07 00:00:00" 11319 1462
"2011-07-08 00:00:00" 11447 1447
"2011-07-09 00:00:00" 11057 1377
"2011-07-10 00:00:00" 10654 1462
"2011-07-11 00:00:00" 10066 1618
"2011-07-12 00:00:00" 10009 1655
"2011-07-13 00:00:00" 10022 1695
"2011-07-14 00:00:00" 10595 1605
"2011-07-15 00:00:00" 10934 1514
"2011-07-16 00:00:00" 10947 1402
"2011-07-17 00:00:00" 10027 1602
"2011-07-18 00:00:00" 9112 1686
"2011-07-19 00:00:00" 9785 1749
"2011-07-20 00:00:00" 9523 1785
"2011-07-21 00:00:00" 9707 1754
"2011-07-22 00:00:00" 10908 1562
"2011-07-23 00:00:00" 11257 1457
"2011-07-24 00:00:00" 10375 1523
"2011-07-25 00:00:00" 9750 1757
"2011-07-26 00:00:00" 9649 1797
"2011-07-27 00:00:00" 9325 1848
"2011-07-28 00:00:00" 9426 1796
"2011-07-29 00:00:00" 11106 1549
"2011-07-30 00:00:00" 11544 1373
"2011-07-31 00:00:00" 12858 1337
"2011-08-01 00:00:00" 14589 1240
"2011-08-02 00:00:00" 13614 1337
"2011-08-03 00:00:00" 12303 1471
"2011-08-04 00:00:00" 11670 1512
"2011-08-05 00:00:00" 12423 1406
"2011-08-06 00:00:00" 12331 1276
"2011-08-07 00:00:00" 12366 1379
"2011-08-08 00:00:00" 11337 1578
"2011-08-09 00:00:00" 10000 1646
"2011-08-10 00:00:00" 11269 1571
"2011-08-11 00:00:00" 11484 1530
"2011-08-12 00:00:00" 11801 1448
"2011-08-13 00:00:00" 13033 1231
"2011-08-14 00:00:00" 12419 1344
"2011-08-15 00:00:00" 11475 1488
"2011-08-16 00:00:00" 11526 1519
"2011-08-17 00:00:00" 11571 1517
"2011-08-18 00:00:00" 11807 1500
"2011-08-19 00:00:00" 12161 1429
"2011-08-20 00:00:00" 13003 1287
"2011-08-21 00:00:00" 13811 1256
"2011-08-22 00:00:00" 13468 1330
"2011-08-23 00:00:00" 13804 1334
"2011-08-24 00:00:00" 14419 1275
"2011-08-25 00:00:00" 14679 1287
"2011-08-26 00:00:00" 15327 1206
"2011-08-27 00:00:00" 15271 1177
"2011-08-28 00:00:00" 16264 1270
"2011-08-29 00:00:00" 17047 1147
"2011-08-30 00:00:00" 12652 1418
"2011-08-31 00:00:00" 9929 1753
"2011-09-01 00:00:00" 12156 1423
"2011-09-02 00:00:00" 13178 1292
"2011-09-03 00:00:00" 13556 1211
"2011-09-04 00:00:00" 13454 1095
"2011-09-05 00:00:00" 8667 1045
"2011-09-06 00:00:00" 7234 1101
"2011-09-07 00:00:00" 6684 1126
"2011-09-08 00:00:00" 10460 1650
"2011-09-09 00:00:00" 11189 1498
"2011-09-10 00:00:00" 11656 1403
"2011-09-11 00:00:00" 10254 1659
"2011-09-12 00:00:00" 8697 1923
"2011-09-13 00:00:00" 9064 1837
"2011-09-14 00:00:00" 8700 1870
"2011-09-15 00:00:00" 9077 1812
"2011-09-16 00:00:00" 10307 1608
"2011-09-17 00:00:00" 11296 1445
"2011-09-18 00:00:00" 10531 1672
"2011-09-19 00:00:00" 9189 1865
"2011-09-20 00:00:00" 8771 1924
"2011-09-21 00:00:00" 9226 1941
"2011-09-22 00:00:00" 8982 1921
"2011-09-23 00:00:00" 9903 1739
"2011-09-24 00:00:00" 10605 1572
"2011-09-25 00:00:00" 10138 1742
"2011-09-26 00:00:00" 8819 1980
"2011-09-27 00:00:00" 8391 2086
"2011-09-28 00:00:00" 8580 2005
"2011-09-29 00:00:00" 8036 1998
"2011-09-30 00:00:00" 8837 1863
"2011-10-01 00:00:00" 10233 1661
"2011-10-02 00:00:00" 10388 1727
"2011-10-03 00:00:00" 8151 2133
"2011-10-04 00:00:00" 7851 2178
"2011-10-05 00:00:00" 7746 2186
"2011-10-06 00:00:00" 8130 2327
"2011-10-07 00:00:00" 7234 1775
"2011-10-08 00:00:00" 4692 1968
"2011-10-10 00:00:00" 5948 2196
"2011-10-11 00:00:00" 6711 2403
"2011-10-12 00:00:00" 7372 2137
"2011-10-13 00:00:00" 8399 2081
"2011-10-14 00:00:00" 8736 1918
"2011-10-15 00:00:00" 10363 1657
"2011-10-16 00:00:00" 8957 1939
"2011-10-17 00:00:00" 8328 2152
"2011-10-18 00:00:00" 8887 2073
"2011-10-19 00:00:00" 8591 2140
"2011-10-20 00:00:00" 8104 2203
"2011-10-21 00:00:00" 9549 1852
"2011-10-22 00:00:00" 9669 1778
"2011-10-23 00:00:00" 8934 2046
"2011-10-24 00:00:00" 8128 2250
"2011-10-25 00:00:00" 8128 2235
"2011-10-26 00:00:00" 8773 2106
"2011-10-27 00:00:00" 9092 2039
"2011-10-28 00:00:00" 10360 1784
"2011-10-29 00:00:00" 11091 1630
"2011-10-30 00:00:00" 9904 1890
"2011-11-01 00:00:00" 8431 2201
"2011-11-02 00:00:00" 8536 2187
"2011-11-03 00:00:00" 8666 2133
"2011-11-04 00:00:00" 9910 1844
"2011-11-05 00:00:00" 11143 1676
"2011-11-06 00:00:00" 10186 1965
"2011-11-07 00:00:00" 8181 2273
"2011-11-08 00:00:00" 8511 2211
"2011-11-09 00:00:00" 8592 2219
"2011-11-10 00:00:00" 9211 2079
"2011-11-11 00:00:00" 9978 1900
"2011-11-12 00:00:00" 10262 1728
"2011-11-13 00:00:00" 9241 2069
"2011-11-14 00:00:00" 8618 2186
"2011-11-15 00:00:00" 8521 2251
"2011-11-16 00:00:00" 8760 2189
"2011-11-17 00:00:00" 8504 2212
"2011-11-18 00:00:00" 8658 2088
"2011-11-19 00:00:00" 5664 1323
"2011-11-20 00:00:00" 9106 2161
"2011-11-21 00:00:00" 8310 2372
"2011-11-22 00:00:00" 7647 2535
"2011-11-23 00:00:00" 8124 2393
"2011-11-24 00:00:00" 8706 2177
"2011-11-25 00:00:00" 9138 2039
"2011-11-26 00:00:00" 10235 1861
"2011-11-27 00:00:00" 9127 2194
"2011-11-28 00:00:00" 8527 2350
"2011-11-29 00:00:00" 8050 2478
"2011-11-30 00:00:00" 8991 2302
"2011-12-01 00:00:00" 8430 2372
"2011-12-02 00:00:00" 10195 1936
"2011-12-03 00:00:00" 11051 1743
"2011-12-04 00:00:00" 9549 2197
"2011-12-05 00:00:00" 9199 2253
"2011-12-06 00:00:00" 9270 2252
"2011-12-07 00:00:00" 9402 2206
"2011-12-08 00:00:00" 9035 2270
"2011-12-09 00:00:00" 10613 1896
"2011-12-10 00:00:00" 11927 1702
"2011-12-11 00:00:00" 9944 2009
"2011-12-12 00:00:00" 9330 2207
"2011-12-13 00:00:00" 9728 2133
"2011-12-14 00:00:00" 10135 2014
"2011-12-15 00:00:00" 10937 1939
"2011-12-16 00:00:00" 11125 1833
"2011-12-17 00:00:00" 11955 1625
"2011-12-18 00:00:00" 11616 1797
"2011-12-19 00:00:00" 11439 1905
"2011-12-20 00:00:00" 12017 1822
"2011-12-21 00:00:00" 11985 1865
"2011-12-22 00:00:00" 12532 1780
"2011-12-23 00:00:00" 13449 1657
"2011-12-24 00:00:00" 12747 1630
"2011-12-25 00:00:00" 13218 1482
"2011-12-26 00:00:00" 13608 1528
"2011-12-27 00:00:00" 13355 1680
"2011-12-28 00:00:00" 14234 1603
"2011-12-29 00:00:00" 13964 1661
"2011-12-30 00:00:00" 14119 1641
"2011-12-31 00:00:00" 10107 1985
"2012-01-01 00:00:00" 11375 1740
"2012-01-02 00:00:00" 12455 1813
"2012-01-03 00:00:00" 12255 1882
"2012-01-04 00:00:00" 12554 1917
"2012-01-05 00:00:00" 12383 1875
"2012-01-06 00:00:00" 12977 1752
"2012-01-07 00:00:00" 13104 1682
"2012-01-08 00:00:00" 11118 2077
"2012-01-09 00:00:00" 9757 2381
"2012-01-10 00:00:00" 9324 2428
"2012-01-11 00:00:00" 9140 2473
"2012-01-12 00:00:00" 9081 2255
"2012-01-13 00:00:00" 10994 2030
"2012-01-14 00:00:00" 11945 1857
"2012-01-15 00:00:00" 10633 2145
"2012-01-16 00:00:00" 10145 2326
"2012-01-17 00:00:00" 10277 2291
"2012-01-18 00:00:00" 10523 2270
"2012-01-19 00:00:00" 10213 2294
"2012-01-20 00:00:00" 11335 1976
"2012-01-21 00:00:00" 12756 1756
"2012-01-22 00:00:00" 12994 1821
"2012-01-23 00:00:00" 11701 2088
"2012-01-24 00:00:00" 11344 2115
"2012-01-25 00:00:00" 10881 2251
"2012-01-26 00:00:00" 10445 2236
"2012-01-27 00:00:00" 11993 1930
"2012-01-28 00:00:00" 12933 1722
"2012-01-29 00:00:00" 11554 2061
"2012-01-30 00:00:00" 11151 2156
"2012-01-31 00:00:00" 11026 2205
"2012-02-01 00:00:00" 10749 2247
"2012-02-02 00:00:00" 10929 2214
"2012-02-03 00:00:00" 12359 1929
"2012-02-04 00:00:00" 12142 1907
"2012-02-05 00:00:00" 10822 2255
"2012-02-06 00:00:00" 10540 2260
"2012-02-07 00:00:00" 10788 2218
"2012-02-08 00:00:00" 11102 2202
"2012-02-09 00:00:00" 10904 2181
"2012-02-10 00:00:00" 11995 1954
"2012-02-11 00:00:00" 13073 1866
"2012-02-12 00:00:00" 11565 2312
"2012-02-13 00:00:00" 12752 1932
"2012-02-14 00:00:00" 10745 2179
"2012-02-15 00:00:00" 10832 2184
"2012-02-16 00:00:00" 11377 2112
"2012-02-17 00:00:00" 12026 1976
"2012-02-18 00:00:00" 12598 1827
"2012-02-19 00:00:00" 10621 2213
"2012-02-20 00:00:00" 9659 2462
"2012-02-21 00:00:00" 10278 2455
"2012-02-22 00:00:00" 10387 2423
"2012-02-23 00:00:00" 10819 2326
"2012-02-24 00:00:00" 11668 2093
"2012-02-25 00:00:00" 12128 1978
"2012-02-26 00:00:00" 10719 2411
"2012-02-27 00:00:00" 9714 2500
"2012-02-28 00:00:00" 9614 2519
"2012-02-29 00:00:00" 10083 2490
"2012-03-01 00:00:00" 9826 2473
"2012-03-02 00:00:00" 10742 2216
"2012-03-03 00:00:00" 12000 1979
"2012-03-04 00:00:00" 10565 2386
"2012-03-05 00:00:00" 9892 2509
"2012-03-06 00:00:00" 9900 2488
"2012-03-07 00:00:00" 10032 2522
"2012-03-08 00:00:00" 9642 2547
"2012-03-09 00:00:00" 11343 2126
"2012-03-10 00:00:00" 12554 1934
"2012-03-11 00:00:00" 10457 2331
"2012-03-12 00:00:00" 10756 2389
"2012-03-13 00:00:00" 10529 2424
"2012-03-14 00:00:00" 11014 2343
"2012-03-15 00:00:00" 11282 2255
"2012-03-16 00:00:00" 12021 2091
"2012-03-17 00:00:00" 12821 1946
"2012-03-18 00:00:00" 12537 2087
"2012-03-19 00:00:00" 11966 2181
"2012-03-20 00:00:00" 12762 2048
"2012-03-21 00:00:00" 13219 2036
"2012-03-22 00:00:00" 15022 1817
"2012-03-23 00:00:00" 15364 1735
"2012-03-24 00:00:00" 15988 1663
"2012-03-25 00:00:00" 14446 1929
"2012-03-26 00:00:00" 14087 1954
"2012-03-27 00:00:00" 13085 2053
"2012-03-28 00:00:00" 13205 2033
"2012-03-29 00:00:00" 14048 1921
"2012-03-30 00:00:00" 15052 1801
"2012-03-31 00:00:00" 14596 1826
"2012-04-01 00:00:00" 13394 1990
"2012-04-02 00:00:00" 12381 2195
"2012-04-03 00:00:00" 12965 2161
"2012-04-04 00:00:00" 12870 2133
"2012-04-05 00:00:00" 14689 1868
"2012-04-06 00:00:00" 15862 1722
"2012-04-07 00:00:00" 16165 1659
"2012-04-08 00:00:00" 14160 1932
"2012-04-09 00:00:00" 12742 2164
"2012-04-10 00:00:00" 12400 2214
"2012-04-11 00:00:00" 12435 2313
"2012-04-12 00:00:00" 13103 2097
"2012-04-13 00:00:00" 14764 1848
"2012-04-14 00:00:00" 16192 1680
"2012-04-15 00:00:00" 14445 1991
"2012-04-16 00:00:00" 14689 1937
"2012-04-17 00:00:00" 14095 1979
"2012-04-18 00:00:00" 15269 1897
"2012-04-19 00:00:00" 15011 1874
"2012-04-20 00:00:00" 15750 1739
"2012-04-21 00:00:00" 9063 1171
"2012-04-23 00:00:00" 3213 4447
"2012-04-24 00:00:00" 14151 2058
"2012-04-25 00:00:00" 14046 2074
"2012-04-26 00:00:00" 14263 1999
"2012-04-27 00:00:00" 15275 1801
"2012-04-28 00:00:00" 15012 1816
"2012-04-29 00:00:00" 14193 2019
"2012-04-30 00:00:00" 13503 2146
"2012-05-01 00:00:00" 13143 2154
"2012-05-02 00:00:00" 13166 2127
"2012-05-03 00:00:00" 13488 2052
"2012-05-04 00:00:00" 14914 1851
"2012-05-05 00:00:00" 15384 1775
"2012-05-06 00:00:00" 14358 2047
"2012-05-07 00:00:00" 13692 2082
"2012-05-08 00:00:00" 13480 2065
"2012-05-09 00:00:00" 13303 2126
"2012-05-10 00:00:00" 13900 1993
"2012-05-11 00:00:00" 13090 1926
"2012-05-12 00:00:00" 15461 1748
"2012-05-13 00:00:00" 14813 1977
"2012-05-14 00:00:00" 13375 2131
"2012-05-15 00:00:00" 14220 2005
"2012-05-16 00:00:00" 16381 1813
"2012-05-17 00:00:00" 16303 1807
"2012-05-18 00:00:00" 16650 1725
"2012-05-19 00:00:00" 18190 1620
"2012-05-20 00:00:00" 15382 1928
"2012-05-21 00:00:00" 14086 2079
"2012-05-22 00:00:00" 14042 2098
"2012-05-23 00:00:00" 13824 2107
"2012-05-24 00:00:00" 14087 2010
"2012-05-25 00:00:00" 16364 1782
"2012-05-26 00:00:00" 15975 1784
"2012-05-27 00:00:00" 15513 1829
"2012-05-28 00:00:00" 14623 2011
"2012-05-29 00:00:00" 14643 2023
"2012-05-30 00:00:00" 14729 2014
"2012-05-31 00:00:00" 14695 2035
"2012-06-01 00:00:00" 16523 1817
"2012-06-02 00:00:00" 16810 1713
"2012-06-03 00:00:00" 16736 1844
"2012-06-04 00:00:00" 17392 1803
"2012-06-05 00:00:00" 16600 1892
"2012-06-06 00:00:00" 16589 1896
"2012-06-07 00:00:00" 16739 1911
"2012-06-08 00:00:00" 17952 1748
"2012-06-09 00:00:00" 19783 1604
"2012-06-10 00:00:00" 18593 1765
"2012-06-11 00:00:00" 16914 1915
"2012-06-12 00:00:00" 17507 1864
"2012-06-13 00:00:00" 17779 1810
"2012-06-14 00:00:00" 17891 1781
"2012-06-15 00:00:00" 17734 1721
"2012-06-16 00:00:00" 19699 1575
"2012-06-17 00:00:00" 19235 1685
"2012-06-18 00:00:00" 18239 1768
"2012-06-19 00:00:00" 18877 1773
"2012-06-20 00:00:00" 19187 1710
"2012-06-21 00:00:00" 18046 1727
"2012-06-22 00:00:00" 20065 1658
"2012-06-23 00:00:00" 20580 1513
"2012-06-24 00:00:00" 20028 1646
"2012-06-25 00:00:00" 19649 1666
"2012-06-26 00:00:00" 20230 1640
"2012-06-27 00:00:00" 19290 1759
"2012-06-28 00:00:00" 19579 1758
"2012-06-29 00:00:00" 19860 1620
"2012-06-30 00:00:00" 19737 1564
"2012-07-01 00:00:00" 20928 1754
"2012-07-02 00:00:00" 19732 1710
"2012-07-03 00:00:00" 19882 1676
"2012-07-04 00:00:00" 20125 1657
"2012-07-05 00:00:00" 21118 1576
"2012-07-06 00:00:00" 20691 1643
"2012-07-07 00:00:00" 20301 1558
"2012-07-08 00:00:00" 18884 1674
"2012-07-09 00:00:00" 19073 1720
"2012-07-10 00:00:00" 19607 1700
"2012-07-11 00:00:00" 19521 1739
"2012-07-12 00:00:00" 19721 1703
"2012-07-13 00:00:00" 18998 1701
"2012-07-14 00:00:00" 20538 1519
"2012-07-15 00:00:00" 18705 1681
"2012-07-16 00:00:00" 17161 1870
"2012-07-17 00:00:00" 17112 1910
"2012-07-18 00:00:00" 19495 1776
"2012-07-19 00:00:00" 21841 1580
"2012-07-20 00:00:00" 25524 1453
"2012-07-21 00:00:00" 26556 1281
"2012-07-22 00:00:00" 23991 1469
"2012-07-23 00:00:00" 21181 1698
"2012-07-24 00:00:00" 20558 1700
"2012-07-25 00:00:00" 19994 1754
"2012-07-26 00:00:00" 17849 1797
"2012-07-27 00:00:00" 21385 1714
"2012-07-28 00:00:00" 22412 1482
"2012-07-29 00:00:00" 21669 1560
"2012-07-30 00:00:00" 20243 1748
"2012-07-31 00:00:00" 20260 1749
"2012-08-01 00:00:00" 19908 1764
"2012-08-02 00:00:00" 19441 1770
"2012-08-03 00:00:00" 21245 1637
"2012-08-04 00:00:00" 21817 1544
"2012-08-05 00:00:00" 22019 1604
"2012-08-06 00:00:00" 21003 1691
"2012-08-07 00:00:00" 20577 1715
"2012-08-08 00:00:00" 21078 1676
"2012-08-09 00:00:00" 21391 1675
"2012-08-10 00:00:00" 22434 1591
"2012-08-11 00:00:00" 23137 1505
"2012-08-12 00:00:00" 24898 1546
"2012-08-13 00:00:00" 25479 1459
"2012-08-14 00:00:00" 25487 1425
"2012-08-15 00:00:00" 25190 1481
"2012-08-16 00:00:00" 26777 1400
"2012-08-17 00:00:00" 26251 1391
"2012-08-18 00:00:00" 22563 1526
"2012-08-19 00:00:00" 18054 1772
"2012-08-20 00:00:00" 21230 1617
"2012-08-21 00:00:00" 21962 1587
"2012-08-22 00:00:00" 23069 1544
"2012-08-23 00:00:00" 23782 1529
"2012-08-24 00:00:00" 22814 1525
"2012-08-25 00:00:00" 22394 1523
"2012-08-26 00:00:00" 21517 1623
"2012-08-27 00:00:00" 18850 1817
"2012-08-28 00:00:00" 18180 1859
"2012-08-29 00:00:00" 17420 1966
"2012-08-30 00:00:00" 16186 2039
"2012-08-31 00:00:00" 18633 1809
"2012-09-01 00:00:00" 19262 1687
"2012-09-02 00:00:00" 17525 1868
"2012-09-03 00:00:00" 15306 2174
"2012-09-04 00:00:00" 15351 2162
"2012-09-05 00:00:00" 14888 2194
"2012-09-06 00:00:00" 15266 2213
"2012-09-07 00:00:00" 17091 1848
"2012-09-08 00:00:00" 18834 1712
"2012-09-09 00:00:00" 16947 1976
"2012-09-10 00:00:00" 14548 2207
"2012-09-11 00:00:00" 14654 2204
"2012-09-12 00:00:00" 14337 2237
"2012-09-13 00:00:00" 14609 2149
"2012-09-14 00:00:00" 15924 1884
"2012-09-15 00:00:00" 18242 1695
"2012-09-16 00:00:00" 16540 2011
"2012-09-17 00:00:00" 14243 2221
"2012-09-18 00:00:00" 14374 2232
"2012-09-19 00:00:00" 15914 2012
"2012-09-20 00:00:00" 15485 2035
"2012-09-21 00:00:00" 16186 1901
"2012-09-22 00:00:00" 18782 1726
"2012-09-23 00:00:00" 15883 2130
"2012-09-24 00:00:00" 15030 2138
"2012-09-25 00:00:00" 14549 2214
"2012-09-26 00:00:00" 14346 2254
"2012-09-27 00:00:00" 14576 2147
"2012-09-28 00:00:00" 15999 1947
"2012-09-29 00:00:00" 17877 1794
"2012-09-30 00:00:00" 15840 2138
"2012-10-01 00:00:00" 14755 2186
"2012-10-02 00:00:00" 13955 2300
"2012-10-03 00:00:00" 18005 1968
"2012-10-04 00:00:00" 14208 2217
"2012-10-05 00:00:00" 16356 1925
"2012-10-06 00:00:00" 18000 1794
"2012-10-07 00:00:00" 15844 2238
"2012-10-08 00:00:00" 13796 2396
"2012-10-09 00:00:00" 14072 2303
"2012-10-10 00:00:00" 13557 2307
"2012-10-11 00:00:00" 14254 2234
"2012-10-12 00:00:00" 15878 1970
"2012-10-13 00:00:00" 17603 1809
"2012-10-14 00:00:00" 15985 2156
"2012-10-15 00:00:00" 13285 2407
"2012-10-16 00:00:00" 14096 2422
"2012-10-17 00:00:00" 13719 2336
"2012-10-18 00:00:00" 13509 1922
"2012-10-19 00:00:00" 15342 2026
"2012-10-20 00:00:00" 17727 1845
"2012-10-21 00:00:00" 15028 2258
"2012-10-22 00:00:00" 13911 2443
"2012-10-23 00:00:00" 13728 2414
"2012-10-24 00:00:00" 15435 2187
"2012-10-25 00:00:00" 17924 1928
"2012-10-26 00:00:00" 18619 1743
"2012-10-27 00:00:00" 17785 1803
"2012-10-28 00:00:00" 17003 2148
"2012-10-29 00:00:00" 14149 2524
"2012-10-30 00:00:00" 14155 2420
"2012-10-31 00:00:00" 15016 2195
"2012-11-01 00:00:00" 15420 2186
"2012-11-02 00:00:00" 16675 2053
"2012-11-03 00:00:00" 17964 1944
"2012-11-04 00:00:00" 15182 2352
"2012-11-05 00:00:00" 13705 2503
"2012-11-06 00:00:00" 13555 2772
"2012-11-07 00:00:00" 13558 2638
"2012-11-08 00:00:00" 14464 2322
"2012-11-09 00:00:00" 16229 2016
"2012-11-10 00:00:00" 18599 1842
"2012-11-11 00:00:00" 15430 2381
"2012-11-12 00:00:00" 14515 2402
"2012-11-13 00:00:00" 14564 2329
"2012-11-14 00:00:00" 17395 1979
"2012-11-15 00:00:00" 17931 1935
"2012-11-16 00:00:00" 19369 1762
"2012-11-17 00:00:00" 20725 1695
"2012-11-18 00:00:00" 15131 2350
"2012-11-19 00:00:00" 14179 2433
"2012-11-20 00:00:00" 13795 2426
"2012-11-21 00:00:00" 9525 2936
"2012-11-22 00:00:00" 13725 2400
"2012-11-23 00:00:00" 15407 2160
"2012-11-24 00:00:00" 17939 1952
"2012-11-25 00:00:00" 15516 2372
"2012-11-26 00:00:00" 14019 2455
"2012-11-27 00:00:00" 13527 2523
"2012-11-28 00:00:00" 14187 2426
"2012-11-29 00:00:00" 14159 2384
"2012-11-30 00:00:00" 16501 2075
"2012-12-01 00:00:00" 19084 1878
"2012-12-02 00:00:00" 15426 2311
"2012-12-03 00:00:00" 14678 2409
"2012-12-04 00:00:00" 15128 2333
"2012-12-05 00:00:00" 15595 2283
"2012-12-06 00:00:00" 16218 2183
"2012-12-07 00:00:00" 18281 1898
"2012-12-08 00:00:00" 20181 1774
"2012-12-09 00:00:00" 16720 2266
"2012-12-10 00:00:00" 16525 2231
"2012-12-11 00:00:00" 18362 2005
"2012-12-12 00:00:00" 17359 2182
"2012-12-13 00:00:00" 18415 2000
"2012-12-14 00:00:00" 19010 1949
"2012-12-15 00:00:00" 21466 1668
"2012-12-16 00:00:00" 19523 1965
"2012-12-17 00:00:00" 19604 1930
"2012-12-18 00:00:00" 19829 1894
"2012-12-19 00:00:00" 20190 1895
"2012-12-20 00:00:00" 21375 1862
"2012-12-21 00:00:00" 21268 1772
"2012-12-22 00:00:00" 23033 1563
"2012-12-23 00:00:00" 22741 1637
"2012-12-24 00:00:00" 22810 1678
"2012-12-25 00:00:00" 24335 1523
"2012-12-26 00:00:00" 23716 1618
"2012-12-27 00:00:00" 24167 1642
"2012-12-28 00:00:00" 24014 1643
"2012-12-29 00:00:00" 23302 1669
"2012-12-30 00:00:00" 23472 1703
"2012-12-31 00:00:00" 20579 1942
"2013-01-01 00:00:00" 19396 1867
"2013-01-02 00:00:00" 20716 1870
"2013-01-03 00:00:00" 21712 1813
"2013-01-04 00:00:00" 21883 1805
"2013-01-05 00:00:00" 22331 1751
"2013-01-06 00:00:00" 18010 2127
"2013-01-07 00:00:00" 16760 2287
"2013-01-08 00:00:00" 17067 2150
"2013-01-09 00:00:00" 13466 1814
"2013-01-10 00:00:00" 15685 2258
"2013-01-11 00:00:00" 17610 2001
"2013-01-12 00:00:00" 19938 1880
"2013-01-13 00:00:00" 16678 2302
"2013-01-14 00:00:00" 17317 2130
"2013-01-15 00:00:00" 16603 2220
"2013-01-16 00:00:00" 17919 2073
"2013-01-17 00:00:00" 18410 1990
"2013-01-18 00:00:00" 18214 1983
"2013-01-19 00:00:00" 20556 1787
"2013-01-20 00:00:00" 17871 2164
"2013-01-21 00:00:00" 15898 2167
"2013-01-22 00:00:00" 16951 2159
"2013-01-23 00:00:00" 20060 1922
"2013-01-24 00:00:00" 18790 2006
"2013-01-25 00:00:00" 19634 1870
"2013-01-26 00:00:00" 21176 1771
"2013-01-27 00:00:00" 18534 2129
"2013-01-28 00:00:00" 17368 2173
"2013-01-29 00:00:00" 17407 2150
"2013-01-30 00:00:00" 17490 2140
"2013-01-31 00:00:00" 15196 2297
"2013-02-01 00:00:00" 18944 1892
"2013-02-02 00:00:00" 19965 1824
"2013-02-03 00:00:00" 17673 2287
"2013-02-04 00:00:00" 16850 2133
"2013-02-05 00:00:00" 17466 2104
"2013-02-06 00:00:00" 17315 2146
"2013-02-07 00:00:00" 16817 2109
"2013-02-08 00:00:00" 18661 1938
"2013-02-09 00:00:00" 20649 1770
"2013-02-10 00:00:00" 17795 2226
"2013-02-11 00:00:00" 17375 2165
"2013-02-12 00:00:00" 17024 2217
"2013-02-13 00:00:00" 18033 2097
"2013-02-14 00:00:00" 16493 2143
"2013-02-15 00:00:00" 18358 1948
"2013-02-16 00:00:00" 19372 1881
"2013-02-17 00:00:00" 16979 2203
"2013-02-18 00:00:00" 16266 2254
"2013-02-19 00:00:00" 16063 2259
"2013-02-20 00:00:00" 16505 2284
"2013-02-21 00:00:00" 15882 2289
"2013-02-22 00:00:00" 18300 2001
"2013-02-23 00:00:00" 19539 1914
"2013-02-24 00:00:00" 17048 2329
"2013-02-25 00:00:00" 16611 2237
"2013-02-26 00:00:00" 16490 2260
"2013-02-27 00:00:00" 15225 2332
"2013-02-28 00:00:00" 15948 2261
"2013-03-01 00:00:00" 17519 2075
"2013-03-02 00:00:00" 19413 1905
"2013-03-03 00:00:00" 16312 2320
"2013-03-04 00:00:00" 15787 2299
"2013-03-05 00:00:00" 16160 2413
"2013-03-06 00:00:00" 14767 2555
"2013-03-07 00:00:00" 16510 2236
"2013-03-08 00:00:00" 18057 2070
"2013-03-09 00:00:00" 19261 1955
"2013-03-10 00:00:00" 17122 2205
"2013-03-11 00:00:00" 19715 1989
"2013-03-12 00:00:00" 18003 2144
"2013-03-13 00:00:00" 17584 2197
"2013-03-14 00:00:00" 17320 2136
"2013-03-15 00:00:00" 17672 2092
"2013-03-16 00:00:00" 20298 1860
"2013-03-17 00:00:00" 18300 2159
"2013-03-18 00:00:00" 18314 2148
"2013-03-19 00:00:00" 18102 2106
"2013-03-20 00:00:00" 17458 2155
"2013-03-21 00:00:00" 17793 2111
"2013-03-22 00:00:00" 19098 2002
"2013-03-23 00:00:00" 17407 2129
"2013-03-24 00:00:00" 17132 2257
"2013-03-25 00:00:00" 14681 2536
"2013-03-26 00:00:00" 15258 2500
"2013-03-27 00:00:00" 16209 2338
"2013-03-28 00:00:00" 19292 1993
"2013-03-29 00:00:00" 19808 1936
"2013-03-30 00:00:00" 19834 1936
"2013-03-31 00:00:00" 16664 2329
"2013-04-01 00:00:00" 16298 2389
"2013-04-02 00:00:00" 15780 2442
"2013-04-03 00:00:00" 15359 2501
"2013-04-04 00:00:00" 15404 2465
"2013-04-05 00:00:00" 17389 2157
"2013-04-06 00:00:00" 18671 2041
"2013-04-07 00:00:00" 15777 2495
"2013-04-08 00:00:00" 15185 2549
"2013-04-09 00:00:00" 14332 2629
"2013-04-10 00:00:00" 14878 2514
"2013-04-11 00:00:00" 15689 2375
"2013-04-12 00:00:00" 17518 2127
"2013-04-13 00:00:00" 19081 1996
"2013-04-14 00:00:00" 17208 2404
"2013-04-15 00:00:00" 17251 2436
"2013-04-16 00:00:00" 18523 2166
"2013-04-17 00:00:00" 18448 2079
"2013-04-18 00:00:00" 17231 2077
"2013-04-19 00:00:00" 17566 2103
"2013-04-20 00:00:00" 17927 1976
"2013-04-21 00:00:00" 16797 2205
"2013-04-22 00:00:00" 15830 2308
"2013-04-23 00:00:00" 14990 2388
"2013-04-24 00:00:00" 16527 2253
"2013-04-25 00:00:00" 16713 2188
"2013-04-26 00:00:00" 17075 2065
"2013-04-27 00:00:00" 17872 1976
"2013-04-28 00:00:00" 16886 2212
"2013-04-29 00:00:00" 15758 2300
"2013-04-30 00:00:00" 16432 2308
"2013-05-01 00:00:00" 16656 2320
"2013-05-02 00:00:00" 16943 2253
"2013-05-03 00:00:00" 18717 2039
"2013-05-04 00:00:00" 19128 1980
"2013-05-05 00:00:00" 18146 2227
"2013-05-06 00:00:00" 17492 2208
"2013-05-07 00:00:00" 17784 2159
"2013-05-08 00:00:00" 18330 2060
"2013-05-09 00:00:00" 18334 2103
"2013-05-10 00:00:00" 19970 1893
"2013-05-11 00:00:00" 20220 1882
"2013-05-12 00:00:00" 15574 2424
"2013-05-13 00:00:00" 17575 2168
"2013-05-14 00:00:00" 16807 2231
"2013-05-15 00:00:00" 17138 2247
"2013-05-16 00:00:00" 17590 2191
"2013-05-17 00:00:00" 18030 2058
"2013-05-18 00:00:00" 19647 1920
"2013-05-19 00:00:00" 18285 2206
"2013-05-20 00:00:00" 17044 2311
"2013-05-21 00:00:00" 19463 2313
"2013-05-22 00:00:00" 16841 2275
"2013-05-23 00:00:00" 17642 2135
"2013-05-24 00:00:00" 19696 1920
"2013-05-25 00:00:00" 17591 2097
"2013-05-26 00:00:00" 16096 2308
"2013-05-27 00:00:00" 16076 2382
"2013-05-28 00:00:00" 13956 2730
"2013-05-29 00:00:00" 12336 3047
"2013-05-30 00:00:00" 16068 2398
"2013-05-31 00:00:00" 16116 2401
"2013-06-01 00:00:00" 18499 2181
"2013-06-02 00:00:00" 16936 2386
"2013-06-03 00:00:00" 15771 2409
"2013-06-04 00:00:00" 17193 2265
"2013-06-05 00:00:00" 19693 2021
"2013-06-06 00:00:00" 17935 2188
"2013-06-07 00:00:00" 18478 2101
"2013-06-08 00:00:00" 19764 1919
"2013-06-09 00:00:00" 17898 2192
"2013-06-10 00:00:00" 18124 2165
"2013-06-11 00:00:00" 17313 2317
"2013-06-12 00:00:00" 16827 2225
"2013-06-13 00:00:00" 18128 2132
"2013-06-14 00:00:00" 18776 2021
"2013-06-15 00:00:00" 19169 1968
"2013-06-16 00:00:00" 18034 2100
"2013-06-17 00:00:00" 18232 2143
"2013-06-18 00:00:00" 19351 2094
"2013-06-19 00:00:00" 19219 2074
"2013-06-20 00:00:00" 20104 2049
"2013-06-21 00:00:00" 20665 1933
"2013-06-22 00:00:00" 20288 1866
"2013-06-23 00:00:00" 19180 2054
"2013-06-24 00:00:00" 19172 2120
"2013-06-25 00:00:00" 18234 2180
"2013-06-26 00:00:00" 20101 2058
"2013-06-27 00:00:00" 19785 2083
"2013-06-28 00:00:00" 20747 1923
"2013-06-29 00:00:00" 19463 1900
"2013-06-30 00:00:00" 19384 2162
"2013-07-01 00:00:00" 19929 1988
"2013-07-02 00:00:00" 19668 2045
"2013-07-03 00:00:00" 14120 2663
"2013-07-04 00:00:00" 20031 1946
"2013-07-05 00:00:00" 20047 2006
"2013-07-06 00:00:00" 17962 2050
"2013-07-07 00:00:00" 19061 2051
"2013-07-08 00:00:00" 21444 1959
"2013-07-09 00:00:00" 22300 1941
"2013-07-10 00:00:00" 23071 1826
"2013-07-11 00:00:00" 22784 1839
"2013-07-12 00:00:00" 22718 1815
"2013-07-13 00:00:00" 22555 1804
"2013-07-14 00:00:00" 20754 1989
"2013-07-15 00:00:00" 18458 2199
"2013-07-16 00:00:00" 17889 2213
"2013-07-17 00:00:00" 19089 2164
"2013-07-18 00:00:00" 18429 2213
"2013-07-19 00:00:00" 19983 2029
"2013-07-20 00:00:00" 19174 2003
"2013-07-21 00:00:00" 19404 2046
"2013-07-22 00:00:00" 16898 2461
"2013-07-23 00:00:00" 16970 2502
"2013-07-24 00:00:00" 19315 2219
"2013-07-25 00:00:00" 18922 2217
"2013-07-26 00:00:00" 20023 2053
"2013-07-27 00:00:00" 20552 1905
"2013-07-28 00:00:00" 20201 1994
"2013-07-29 00:00:00" 20325 2057
"2013-07-30 00:00:00" 19398 2113
"2013-07-31 00:00:00" 17334 2326
"2013-08-01 00:00:00" 19186 2143
"2013-08-02 00:00:00" 19631 2047
"2013-08-03 00:00:00" 19925 1926
"2013-08-04 00:00:00" 20762 1987
"2013-08-05 00:00:00" 22457 1919
"2013-08-06 00:00:00" 28007 1587
"2013-08-07 00:00:00" 22054 1939
"2013-08-08 00:00:00" 16766 2223
"2013-08-09 00:00:00" 18597 2035
"2013-08-10 00:00:00" 20217 1853
"2013-08-11 00:00:00" 20628 2042
"2013-08-12 00:00:00" 21076 2018
"2013-08-13 00:00:00" 19748 2120
"2013-08-14 00:00:00" 20029 2131
"2013-08-15 00:00:00" 20481 2033
"2013-08-16 00:00:00" 19849 2069
"2013-08-17 00:00:00" 19009 2068
"2013-08-18 00:00:00" 16759 2370
"2013-08-19 00:00:00" 15661 2525
"2013-08-20 00:00:00" 15278 2574
"2013-08-21 00:00:00" 14642 2711
"2013-08-22 00:00:00" 15397 2498
"2013-08-23 00:00:00" 16345 2308
"2013-08-24 00:00:00" 16943 2178
"2013-08-25 00:00:00" 14945 2797
"2013-08-26 00:00:00" 14352 2732
"2013-08-27 00:00:00" 14773 2567
"2013-08-28 00:00:00" 13988 2786
"2013-08-29 00:00:00" 14605 2652
"2013-08-30 00:00:00" 17465 2234
"2013-08-31 00:00:00" 17684 2163
"2013-09-01 00:00:00" 16080 2442
"2013-09-02 00:00:00" 14676 2752
"2013-09-03 00:00:00" 13511 2816
"2013-09-04 00:00:00" 13807 2691
"2013-09-05 00:00:00" 14114 2612
"2013-09-06 00:00:00" 15033 2437
"2013-09-07 00:00:00" 16477 2301
"2013-09-08 00:00:00" 14420 2726
"2013-09-09 00:00:00" 12257 3034
"2013-09-10 00:00:00" 12323 3036
"2013-09-11 00:00:00" 12431 2990
"2013-09-12 00:00:00" 13264 2741
"2013-09-13 00:00:00" 14485 2523
"2013-09-14 00:00:00" 15988 2368
"2013-09-15 00:00:00" 13974 2843
"2013-09-16 00:00:00" 12711 2999
"2013-09-17 00:00:00" 12337 2983
"2013-09-18 00:00:00" 12614 2873
"2013-09-19 00:00:00" 12839 2719
"2013-09-20 00:00:00" 14433 2411
"2013-09-21 00:00:00" 16821 2183
"2013-09-22 00:00:00" 14481 2718
"2013-09-23 00:00:00" 12641 2856
"2013-09-24 00:00:00" 12117 2938
"2013-09-25 00:00:00" 12067 2972
"2013-09-26 00:00:00" 12332 2860
"2013-09-27 00:00:00" 13892 2490
"2013-09-28 00:00:00" 15576 2372
"2013-09-29 00:00:00" 14024 2709
"2013-09-30 00:00:00" 12344 2956
"2013-10-01 00:00:00" 12435 2926
"2013-10-02 00:00:00" 12124 2951
"2013-10-03 00:00:00" 12190 2902
"2013-10-04 00:00:00" 13249 2555
"2013-10-05 00:00:00" 15554 2321
"2013-10-06 00:00:00" 13969 2739
"2013-10-07 00:00:00" 12605 2880
"2013-10-08 00:00:00" 13215 2718
"2013-10-09 00:00:00" 12813 2793
"2013-10-10 00:00:00" 12677 2834
"2013-10-11 00:00:00" 14275 2502
"2013-10-12 00:00:00" 17169 2146
"2013-10-13 00:00:00" 17446 2266
"2013-10-14 00:00:00" 20170 2055
"2013-10-15 00:00:00" 15641 2469
"2013-10-16 00:00:00" 13895 2627
"2013-10-17 00:00:00" 12918 2773
"2013-10-18 00:00:00" 12946 2626
"2013-10-19 00:00:00" 15263 2337
"2013-10-20 00:00:00" 13248 2830
"2013-10-21 00:00:00" 12316 3030
"2013-10-22 00:00:00" 12009 3035
"2013-10-23 00:00:00" 11567 3192
"2013-10-24 00:00:00" 10735 3291
"2013-10-25 00:00:00" 12829 2737
"2013-10-26 00:00:00" 13412 2670
"2013-10-27 00:00:00" 11967 3214
"2013-10-28 00:00:00" 10970 3321
"2013-10-29 00:00:00" 10064 3557
"2013-10-30 00:00:00" 10163 3550
"2013-10-31 00:00:00" 9938 3432
"2013-11-01 00:00:00" 10969 3180
"2013-11-02 00:00:00" 12439 2865
"2013-11-03 00:00:00" 11739 3193
"2013-11-04 00:00:00" 12825 2905
"2013-11-05 00:00:00" 11372 3193
"2013-11-06 00:00:00" 9502 3795
"2013-11-07 00:00:00" 9891 3531
"2013-11-08 00:00:00" 10849 3184
"2013-11-09 00:00:00" 12076 3019
"2013-11-10 00:00:00" 9696 4140
"2013-11-11 00:00:00" 9274 3919
"2013-11-12 00:00:00" 9218 3902
"2013-11-13 00:00:00" 9611 3685
"2013-11-14 00:00:00" 9416 3725
"2013-11-15 00:00:00" 10394 3323
"2013-11-16 00:00:00" 11932 3022
"2013-11-17 00:00:00" 10037 3802
"2013-11-18 00:00:00" 9547 3884
"2013-11-19 00:00:00" 8827 4191
"2013-11-20 00:00:00" 8774 3944
"2013-11-21 00:00:00" 9263 3850
"2013-11-22 00:00:00" 10358 3435
"2013-11-23 00:00:00" 11656 3282
"2013-11-24 00:00:00" 9886 3969
"2013-11-25 00:00:00" 8200 4481
"2013-11-26 00:00:00" 8864 4124
"2013-11-27 00:00:00" 8884 4178
"2013-11-28 00:00:00" 8980 3905
"2013-11-29 00:00:00" 9789 3533
"2013-11-30 00:00:00" 11520 3323
"2013-12-01 00:00:00" 9309 4285
"2013-12-02 00:00:00" 9049 4173
"2013-12-03 00:00:00" 9132 4103
"2013-12-04 00:00:00" 9476 4024
"2013-12-05 00:00:00" 9594 3970
"2013-12-06 00:00:00" 10730 3378
"2013-12-07 00:00:00" 11781 3084
"2013-12-08 00:00:00" 10460 3679
"2013-12-09 00:00:00" 10093 3726
"2013-12-10 00:00:00" 10807 3509
"2013-12-11 00:00:00" 10308 3599
"2013-12-12 00:00:00" 10253 3519
"2013-12-13 00:00:00" 10517 3281
"2013-12-14 00:00:00" 11838 2994
"2013-12-15 00:00:00" 10482 3567
"2013-12-16 00:00:00" 10154 3688
"2013-12-17 00:00:00" 10230 3626
"2013-12-18 00:00:00" 11357 3388
"2013-12-19 00:00:00" 11860 3188
"2013-12-20 00:00:00" 11825 3128
"2013-12-21 00:00:00" 11653 3036
"2013-12-22 00:00:00" 11349 3296
"2013-12-23 00:00:00" 12127 3201
"2013-12-24 00:00:00" 12967 2936
"2013-12-25 00:00:00" 13378 2706
"2013-12-26 00:00:00" 12787 2898
"2013-12-27 00:00:00" 13184 2875
"2013-12-28 00:00:00" 12449 2949
"2013-12-29 00:00:00" 11835 3305
"2013-12-30 00:00:00" 12130 3226
"2013-12-31 00:00:00" 11695 3379
"2014-01-01 00:00:00" 11205 3210
"2014-01-02 00:00:00" 11506 3307
"2014-01-03 00:00:00" 11786 3217
"2014-01-04 00:00:00" 11706 3215
"2014-01-05 00:00:00" 9913 3833
"2014-01-06 00:00:00" 9045 4155
"2014-01-07 00:00:00" 8361 4432
"2014-01-08 00:00:00" 8372 4327
"2014-01-09 00:00:00" 8081 4374
"2014-01-10 00:00:00" 8978 3900
"2014-01-11 00:00:00" 9827 3684
"2014-01-12 00:00:00" 9628 3929
"2014-01-13 00:00:00" 10234 3749
"2014-01-14 00:00:00" 8211 4267
"2014-01-15 00:00:00" 6959 4910
"2014-01-16 00:00:00" 7558 4537
"2014-01-17 00:00:00" 7818 4258
"2014-01-18 00:00:00" 8930 3792
"2014-01-19 00:00:00" 8317 4382
"2014-01-20 00:00:00" 7776 4556
"2014-01-21 00:00:00" 7403 4766
"2014-01-22 00:00:00" 7342 4808
"2014-01-23 00:00:00" 7397 4846
"2014-01-24 00:00:00" 7680 4531
"2014-01-25 00:00:00" 8788 3988
"2014-01-26 00:00:00" 7526 5066
"2014-01-27 00:00:00" 7704 4686
"2014-01-28 00:00:00" 8087 4560
"2014-01-29 00:00:00" 8269 4485
"2014-01-30 00:00:00" 9281 3855
"2014-01-31 00:00:00" 8277 4195
"2014-02-01 00:00:00" 9192 3895
"2014-02-02 00:00:00" 8759 4370
"2014-02-03 00:00:00" 8445 4214
"2014-02-04 00:00:00" 7589 4553
"2014-02-05 00:00:00" 7233 4852
"2014-02-06 00:00:00" 7538 4608
"2014-02-07 00:00:00" 7987 4269
"2014-02-08 00:00:00" 8792 3923
"2014-02-09 00:00:00" 7397 4823
"2014-02-10 00:00:00" 6938 4946
"2014-02-11 00:00:00" 7007 4889
"2014-02-12 00:00:00" 6560 5482
"2014-02-13 00:00:00" 8723 4307
"2014-02-14 00:00:00" 7690 4601
"2014-02-15 00:00:00" 8513 4194
"2014-02-16 00:00:00" 7676 4750
"2014-02-17 00:00:00" 7158 4950
"2014-02-18 00:00:00" 6968 5437
"2014-02-19 00:00:00" 7774 4911
"2014-02-20 00:00:00" 8153 4661
"2014-02-21 00:00:00" 7502 4753
"2014-02-22 00:00:00" 9556 3913
"2014-02-23 00:00:00" 7445 4969
"2014-02-24 00:00:00" 7072 5301
"2014-02-25 00:00:00" 7275 4927
"2014-02-26 00:00:00" 6780 5324
"2014-02-27 00:00:00" 6463 5369
"2014-02-28 00:00:00" 7011 4941
"2014-03-01 00:00:00" 7677 4627
"2014-03-02 00:00:00" 6228 6011
"2014-03-03 00:00:00" 5746 6117
"2014-03-04 00:00:00" 4875 7227
"2014-03-05 00:00:00" 5424 6840
"2014-03-06 00:00:00" 6837 5265
"2014-03-07 00:00:00" 6838 5125
"2014-03-08 00:00:00" 7157 5144
"2014-03-09 00:00:00" 6018 5880
"2014-03-10 00:00:00" 6152 5864
"2014-03-11 00:00:00" 5984 5995
"2014-03-12 00:00:00" 6053 6210
"2014-03-13 00:00:00" 6050 5914
"2014-03-14 00:00:00" 6780 5145
"2014-03-15 00:00:00" 7861 4599
"2014-03-16 00:00:00" 7721 4976
"2014-03-17 00:00:00" 6854 5403
"2014-03-18 00:00:00" 6256 5947
"2014-03-19 00:00:00" 5948 6176
"2014-03-20 00:00:00" 5915 6176
"2014-03-21 00:00:00" 6371 5557
"2014-03-22 00:00:00" 7022 5036
"2014-03-23 00:00:00" 6607 5608
"2014-03-24 00:00:00" 5909 6066
"2014-03-25 00:00:00" 5693 6323
"2014-03-26 00:00:00" 5487 6559
"2014-03-27 00:00:00" 5761 6149
"2014-03-28 00:00:00" 6018 5702
"2014-03-29 00:00:00" 6570 5370
"2014-03-30 00:00:00" 7166 5416
"2014-03-31 00:00:00" 6156 6008
"2014-04-01 00:00:00" 5969 6337
"2014-04-02 00:00:00" 5470 6733
"2014-04-03 00:00:00" 5654 6382
"2014-04-04 00:00:00" 6310 5745
"2014-04-05 00:00:00" 6478 5587
"2014-04-06 00:00:00" 5932 6499
"2014-04-07 00:00:00" 5548 6719
"2014-04-08 00:00:00" 6819 5651
"2014-04-09 00:00:00" 6239 5832
"2014-04-10 00:00:00" 5901 5963
"2014-04-11 00:00:00" 6483 5358
"2014-04-12 00:00:00" 6880 5021
"2014-04-13 00:00:00" 6200 5841
"2014-04-14 00:00:00" 5678 6217
"2014-04-15 00:00:00" 6726 5391
"2014-04-16 00:00:00" 7072 5163
"2014-04-17 00:00:00" 6939 5230
"2014-04-18 00:00:00" 6668 5320
"2014-04-19 00:00:00" 6680 5229
"2014-04-20 00:00:00" 5961 5997
"2014-04-21 00:00:00" 5117 6997
"2014-04-22 00:00:00" 5322 6760
"2014-04-23 00:00:00" 5486 6588
"2014-04-24 00:00:00" 5481 6333
"2014-04-25 00:00:00" 5434 6364
"2014-04-26 00:00:00" 6170 5541
"2014-04-27 00:00:00" 5709 6424
"2014-04-28 00:00:00" 5574 6424
"2014-04-29 00:00:00" 5355 6753
"2014-04-30 00:00:00" 6333 5755
"2014-05-01 00:00:00" 6241 5832
"2014-05-02 00:00:00" 6024 5755
"2014-05-03 00:00:00" 6142 5513
"2014-05-04 00:00:00" 9783 3883
"2014-05-05 00:00:00" 11209 3400
"2014-05-06 00:00:00" 10279 3629
"2014-05-07 00:00:00" 5727 6310
"2014-05-08 00:00:00" 5658 6487
"2014-05-09 00:00:00" 5952 5822
"2014-05-10 00:00:00" 6249 5683
"2014-05-11 00:00:00" 5657 6370
"2014-05-12 00:00:00" 4842 7332
"2014-05-13 00:00:00" 4663 7453
"2014-05-14 00:00:00" 5179 7042
"2014-05-15 00:00:00" 5598 6543
"2014-05-16 00:00:00" 5643 6182
"2014-05-17 00:00:00" 5968 5840
"2014-05-18 00:00:00" 5293 6754
"2014-05-19 00:00:00" 5350 6390
"2014-05-20 00:00:00" 4888 6950
"2014-05-21 00:00:00" 4779 7059
"2014-05-22 00:00:00" 4676 7345
"2014-05-23 00:00:00" 4808 7165
"2014-05-24 00:00:00" 5553 6415
"2014-05-25 00:00:00" 5420 6673
"2014-05-26 00:00:00" 5458 6530
"2014-05-27 00:00:00" 5709 6277
"2014-05-28 00:00:00" 5666 6306
"2014-05-29 00:00:00" 4968 6919
"2014-05-30 00:00:00" 5642 5957
"2014-05-31 00:00:00" 5243 6268
"2014-06-01 00:00:00" 4907 6909
"2014-06-02 00:00:00" 5231 6686
"2014-06-03 00:00:00" 4969 6845
"2014-06-04 00:00:00" 4768 7338
"2014-06-05 00:00:00" 4618 7435
"2014-06-06 00:00:00" 4997 6693
"2014-06-07 00:00:00" 5370 6057
"2014-06-08 00:00:00" 4999 7003
"2014-06-09 00:00:00" 5695 6322
"2014-06-10 00:00:00" 5336 6662
"2014-06-11 00:00:00" 5155 6990
"2014-06-12 00:00:00" 5140 7391
"2014-06-13 00:00:00" 5136 7020
"2014-06-14 00:00:00" 5260 6707
"2014-06-15 00:00:00" 5665 6555
"2014-06-16 00:00:00" 5774 6465
"2014-06-17 00:00:00" 5455 6611
"2014-06-18 00:00:00" 5704 6550
"2014-06-19 00:00:00" 5841 6468
"2014-06-20 00:00:00" 5516 6480
"2014-06-21 00:00:00" 5394 6378
"2014-06-22 00:00:00" 5583 6407
"2014-06-23 00:00:00" 5925 6241
"2014-06-24 00:00:00" 5689 6493
"2014-06-25 00:00:00" 5454 6821
"2014-06-26 00:00:00" 5392 6958
"2014-06-27 00:00:00" 6117 5812
"2014-06-28 00:00:00" 5800 6267
"2014-06-29 00:00:00" 6596 5917
"2014-06-30 00:00:00" 5798 6557
"2014-07-01 00:00:00" 5802 6576
"2014-07-02 00:00:00" 5414 6649
"2014-07-03 00:00:00" 6083 6032
"2014-07-04 00:00:00" 6372 6035
"2014-07-05 00:00:00" 6612 5568
"2014-07-06 00:00:00" 6135 6028
"2014-07-07 00:00:00" 6259 6118
"2014-07-08 00:00:00" 6473 6803
"2014-07-09 00:00:00" 6207 6557
"2014-07-10 00:00:00" 5955 6341
"2014-07-11 00:00:00" 6005 6269
"2014-07-12 00:00:00" 5374 6811
"2014-07-13 00:00:00" 5248 7816
"2014-07-14 00:00:00" 5029 7478
"2014-07-15 00:00:00" 4663 7797
"2014-07-16 00:00:00" 4758 7694
"2014-07-17 00:00:00" 4797 7886
"2014-07-18 00:00:00" 4638 7825
"2014-07-19 00:00:00" 4862 7154
"2014-07-20 00:00:00" 5124 7154
"2014-07-21 00:00:00" 6249 6235
"2014-07-22 00:00:00" 7009 5822
"2014-07-23 00:00:00" 5766 6864
"2014-07-24 00:00:00" 5693 6967
"2014-07-25 00:00:00" 5410 6819
"2014-07-26 00:00:00" 5508 6670
"2014-07-27 00:00:00" 4462 8192
"2014-07-28 00:00:00" 3427 10171
"2014-07-29 00:00:00" 4418 8124
"2014-07-30 00:00:00" 4178 8612
"2014-07-31 00:00:00" 4413 8208
"2014-08-01 00:00:00" 4587 7707
"2014-08-02 00:00:00" 4498 7532
"2014-08-03 00:00:00" 4672 7442
"2014-08-04 00:00:00" 4427 8139
"2014-08-05 00:00:00" 4188 8620
"2014-08-06 00:00:00" 3673 9458
"2014-08-07 00:00:00" 3817 9121
"2014-08-08 00:00:00" 4035 8727
"2014-08-09 00:00:00" 4534 7593
"2014-08-10 00:00:00" 3908 9541
"2014-08-11 00:00:00" 3622 10081
"2014-08-12 00:00:00" 3069 11360
"2014-08-13 00:00:00" 3206 10840
"2014-08-14 00:00:00" 3005 11356
"2014-08-15 00:00:00" 3815 9038
"2014-08-16 00:00:00" 3049 10845
"2014-08-17 00:00:00" 3863 8961
"2014-08-18 00:00:00" 3250 10712
"2014-08-19 00:00:00" 2577 13198
"2014-08-20 00:00:00" 3208 10687
"2014-08-21 00:00:00" 3262 10689
"2014-08-22 00:00:00" 3595 9780
"2014-08-23 00:00:00" 3965 9020
"2014-08-24 00:00:00" 3524 10735
"2014-08-25 00:00:00" 3333 10608
"2014-08-26 00:00:00" 2758 12665
"2014-08-27 00:00:00" 3141 10943
"2014-08-28 00:00:00" 2852 12091
"2014-08-29 00:00:00" 3131 10796
"2014-08-30 00:00:00" 3590 9621
"2014-08-31 00:00:00" 3365 10515
"2014-09-01 00:00:00" 2863 12436
"2014-09-02 00:00:00" 2727 12480
"2014-09-03 00:00:00" 2572 13223
"2014-09-04 00:00:00" 2538 13024
"2014-09-05 00:00:00" 2547 12560
"2014-09-06 00:00:00" 3294 9958
"2014-09-07 00:00:00" 3227 10674
"2014-09-08 00:00:00" 2659 12554
"2014-09-09 00:00:00" 2389 14118
"2014-09-10 00:00:00" 2463 13495
"2014-09-11 00:00:00" 2299 14596
"2014-09-12 00:00:00" 2371 13992
"2014-09-13 00:00:00" 2720 12412
"2014-09-14 00:00:00" 2776 13124
"2014-09-15 00:00:00" 2721 12570
"2014-09-16 00:00:00" 2414 14483
"2014-09-17 00:00:00" 2331 14500
"2014-09-18 00:00:00" 2354 14132
"2014-09-19 00:00:00" 2758 12335
"2014-09-20 00:00:00" 2899 11694
"2014-09-21 00:00:00" 3179 11472
"2014-09-22 00:00:00" 2505 13673
"2014-09-23 00:00:00" 2322 14809
"2014-09-24 00:00:00" 2759 12796
"2014-09-25 00:00:00" 2623 12531
"2014-09-26 00:00:00" 2607 12421
"2014-09-27 00:00:00" 2909 11493
"2014-09-28 00:00:00" 2555 13378
"2014-09-29 00:00:00" 2471 13513
"2014-09-30 00:00:00" 2219 15404
"2014-10-01 00:00:00" 2178 15317
"2014-10-02 00:00:00" 2332 14465
"2014-10-03 00:00:00" 2671 12188
"2014-10-04 00:00:00" 2915 11083
"2014-10-05 00:00:00" 2752 13071
"2014-10-06 00:00:00" 2535 13357
"2014-10-07 00:00:00" 2049 15760
"2014-10-08 00:00:00" 2382 13974
"2014-10-09 00:00:00" 2165 15272
"2014-10-10 00:00:00" 2344 14172
"2014-10-11 00:00:00" 2712 11948
"2014-10-12 00:00:00" 2581 13332
"2014-10-13 00:00:00" 2309 14684
"2014-10-14 00:00:00" 2663 13100
"2014-10-15 00:00:00" 2447 13929
"2014-10-16 00:00:00" 2574 13096
"2014-10-17 00:00:00" 2566 12536
"2014-10-18 00:00:00" 3048 10909
"2014-10-19 00:00:00" 2582 13194
"2014-10-20 00:00:00" 2321 14423
"2014-10-21 00:00:00" 2300 14642
"2014-10-22 00:00:00" 2741 12614
"2014-10-23 00:00:00" 2245 14709
"2014-10-24 00:00:00" 2617 12782
"2014-10-25 00:00:00" 2739 12150
"2014-10-26 00:00:00" 3299 11080
"2014-10-27 00:00:00" 2502 13795
"2014-10-28 00:00:00" 2221 15301
"2014-10-29 00:00:00" 2349 14652
"2014-10-30 00:00:00" 2201 15078
"2014-10-31 00:00:00" 2456 13185
"2014-11-01 00:00:00" 3062 11225
"2014-11-02 00:00:00" 2807 12452
"2014-11-03 00:00:00" 2698 12652
"2014-11-04 00:00:00" 2278 14903
"2014-11-05 00:00:00" 2195 15525
"2014-11-06 00:00:00" 2346 14458
"2014-11-07 00:00:00" 2452 13656
"2014-11-08 00:00:00" 2763 13013
"2014-11-09 00:00:00" 3036 12625
"2014-11-10 00:00:00" 2255 14897
"2014-11-11 00:00:00" 2311 14989
"2014-11-12 00:00:00" 2338 14487
"2014-11-13 00:00:00" 2283 14393
"2014-11-14 00:00:00" 2591 12837
"2014-11-15 00:00:00" 2970 11664
"2014-11-16 00:00:00" 2550 13762
"2014-11-17 00:00:00" 2753 12818
"2014-11-18 00:00:00" 2171 15530
"2014-11-19 00:00:00" 2176 15455
"2014-11-20 00:00:00" 1912 17323
"2014-11-21 00:00:00" 2174 15063
"2014-11-22 00:00:00" 2624 13131
"2014-11-23 00:00:00" 2910 12542
"2014-11-24 00:00:00" 2303 15376
"2014-11-25 00:00:00" 2024 17111
"2014-11-26 00:00:00" 2006 17354
"2014-11-27 00:00:00" 2210 15230
"2014-11-28 00:00:00" 1979 16515
"2014-11-29 00:00:00" 2863 12322
"2014-11-30 00:00:00" 2489 14568
"2014-12-01 00:00:00" 1965 17333
"2014-12-02 00:00:00" 2151 15935
"2014-12-03 00:00:00" 2385 14929
"2014-12-04 00:00:00" 1815 18468
"2014-12-05 00:00:00" 2037 16612
"2014-12-06 00:00:00" 2446 14256
"2014-12-07 00:00:00" 2333 15336
"2014-12-08 00:00:00" 2311 15396
"2014-12-09 00:00:00" 1996 17620
"2014-12-10 00:00:00" 2280 15769
"2014-12-11 00:00:00" 2225 15501
"2014-12-12 00:00:00" 2162 15760
"2014-12-13 00:00:00" 2352 15028
"2014-12-14 00:00:00" 2295 16243
"2014-12-15 00:00:00" 2202 16508
"2014-12-16 00:00:00" 2317 15540
"2014-12-17 00:00:00" 2347 15153
"2014-12-18 00:00:00" 2473 14169
"2014-12-19 00:00:00" 2477 13986
"2014-12-20 00:00:00" 3106 11512
"2014-12-21 00:00:00" 2691 13484
"2014-12-22 00:00:00" 2861 12879
"2014-12-23 00:00:00" 3171 11805
"2014-12-24 00:00:00" 3010 11768
"2014-12-25 00:00:00" 3558 9419
"2014-12-26 00:00:00" 3292 10784
"2014-12-27 00:00:00" 3213 11050
"2014-12-28 00:00:00" 3077 11468
"2014-12-29 00:00:00" 3134 11887
"2014-12-30 00:00:00" 2943 12601
"2014-12-31 00:00:00" 2772 13077
"2015-01-02 00:00:00" 3002 12116
"2015-01-03 00:00:00" 3093 11735
"2015-01-04 00:00:00" 2959 12641
"2015-01-05 00:00:00" 2561 13122
"2015-01-06 00:00:00" 2448 15863
"2015-01-07 00:00:00" 2146 17213
"2015-01-08 00:00:00" 2044 17516
"2015-01-09 00:00:00" 2378 15158
"2015-01-10 00:00:00" 2707 13292
"2015-01-11 00:00:00" 3064 12475
"2015-01-12 00:00:00" 1881 19345
"2015-01-13 00:00:00" 2071 17325
"2015-01-14 00:00:00" 2088 17448
"2015-01-15 00:00:00" 2228 16641
"2015-01-16 00:00:00" 2702 13886
"2015-01-17 00:00:00" 2529 14687
"2015-01-18 00:00:00" 2382 16404
"2015-01-19 00:00:00" 2118 18036
"2015-01-20 00:00:00" 2156 17666
"2015-01-21 00:00:00" 2356 16464
"2015-01-22 00:00:00" 2620 15334
"2015-01-23 00:00:00" 3167 12436
"2015-01-24 00:00:00" 2747 13708
"2015-01-25 00:00:00" 2613 14987
"2015-01-26 00:00:00" 2023 19319
"2015-01-27 00:00:00" 2191 17223
"2015-01-28 00:00:00" 2367 15570
"2015-01-29 00:00:00" 1947 18753
"2015-01-30 00:00:00" 2399 15240
"2015-01-31 00:00:00" 2497 14877
"2015-02-01 00:00:00" 2574 15736
"2015-02-02 00:00:00" 2375 15391
"2015-02-03 00:00:00" 2000 18242
"2015-02-04 00:00:00" 2129 17580
"2015-02-05 00:00:00" 2124 17370
"2015-02-06 00:00:00" 2055 17729
"2015-02-07 00:00:00" 2331 15866
"2015-02-08 00:00:00" 2153 17834
"2015-02-09 00:00:00" 1840 20136
"2015-02-10 00:00:00" 2116 17320
"2015-02-11 00:00:00" 2152 17273
"2015-02-12 00:00:00" 1773 20396
"2015-02-13 00:00:00" 2227 16140
"2015-02-14 00:00:00" 2316 15479
"2015-02-15 00:00:00" 2218 16305
"2015-02-16 00:00:00" 2019 18359
"2015-02-17 00:00:00" 2398 16198
"2015-02-18 00:00:00" 2624 15362
"2015-02-19 00:00:00" 2040 19092
"2015-02-20 00:00:00" 1854 20772
"2015-02-21 00:00:00" 2136 18308
"2015-02-22 00:00:00" 2302 18078
"2015-02-23 00:00:00" 2075 18471
"2015-02-24 00:00:00" 2011 19557
"2015-02-25 00:00:00" 1940 20165
"2015-02-26 00:00:00" 1801 20510
"2015-02-27 00:00:00" 1977 18282
"2015-02-28 00:00:00" 1982 18357
"2015-03-01 00:00:00" 1644 21990
"2015-03-02 00:00:00" 1708 21107
"2015-03-03 00:00:00" 1954 19654
"2015-03-04 00:00:00" 2064 19121
"2015-03-05 00:00:00" 1981 19404
"2015-03-06 00:00:00" 1747 21179
"2015-03-07 00:00:00" 1928 19005
"2015-03-08 00:00:00" 1805 20348
"2015-03-09 00:00:00" 2165 18240
"2015-03-10 00:00:00" 2421 14741
"2015-03-11 00:00:00" 2110 16754
"2015-03-12 00:00:00" 2479 13913
"2015-03-13 00:00:00" 2165 15706
"2015-03-14 00:00:00" 2687 12914
"2015-03-15 00:00:00" 2258 15894
"2015-03-16 00:00:00" 2471 14544
"2015-03-17 00:00:00" 2267 16012
"2015-03-18 00:00:00" 2549 14814
"2015-03-19 00:00:00" 2480 14976
"2015-03-20 00:00:00" 2964 12170
"2015-03-21 00:00:00" 3156 11536
"2015-03-22 00:00:00" 2670 14344
"2015-03-23 00:00:00" 2545 14849
"2015-03-24 00:00:00" 2021 18056
"2015-03-25 00:00:00" 1877 20621
"2015-03-26 00:00:00" 1765 21659
"2015-03-27 00:00:00" 1974 19260
"2015-03-28 00:00:00" 2399 15853
"2015-03-29 00:00:00" 2363 16424
"2015-03-30 00:00:00" 2318 16466
"2015-03-31 00:00:00" 1996 19498
"2015-04-01 00:00:00" 2006 18649
"2015-04-02 00:00:00" 2271 15944
"2015-04-03 00:00:00" 2616 13789
"2015-04-04 00:00:00" 2562 14432
"2015-04-05 00:00:00" 1900 19539
"2015-04-06 00:00:00" 1728 21116
"2015-04-07 00:00:00" 2068 17724
"2015-04-08 00:00:00" 2153 16652
"2015-04-09 00:00:00" 1968 16931
"2015-04-10 00:00:00" 1714 18117
"2015-04-11 00:00:00" 2379 13742
"2015-04-12 00:00:00" 2679 12845
"2015-04-13 00:00:00" 2224 14711
"2015-04-14 00:00:00" 2169 15315
"2015-04-15 00:00:00" 2098 15785
"2015-04-16 00:00:00" 1946 16774
"2015-04-17 00:00:00" 1866 16770
"2015-04-18 00:00:00" 2229 13877
"2015-04-19 00:00:00" 2460 13532
"2015-04-20 00:00:00" 1914 16969
"2015-04-21 00:00:00" 1779 18661
"2015-04-22 00:00:00" 1794 18648
"2015-04-23 00:00:00" 1987 16436
"2015-04-24 00:00:00" 1869 17442
"2015-04-25 00:00:00" 2067 16063
"2015-04-26 00:00:00" 1879 18113
"2015-04-27 00:00:00" 1729 19092
"2015-04-28 00:00:00" 2024 16953
"2015-04-29 00:00:00" 1554 21406
"2015-04-30 00:00:00" 1777 17861
"2015-05-01 00:00:00" 2204 14724
"2015-05-02 00:00:00" 2021 15979
"2015-05-03 00:00:00" 2109 16440
"2015-05-04 00:00:00" 2165 15768
"2015-05-05 00:00:00" 1796 18883
"2015-05-06 00:00:00" 1945 18349
"2015-05-07 00:00:00" 2199 15592
"2015-05-08 00:00:00" 1808 17187
"2015-05-09 00:00:00" 2011 15210
"2015-05-10 00:00:00" 1767 17289
"2015-05-11 00:00:00" 1826 16674
"2015-05-12 00:00:00" 1779 17001
"2015-05-13 00:00:00" 1855 16835
"2015-05-14 00:00:00" 2018 15270
"2015-05-15 00:00:00" 2111 13859
"2015-05-16 00:00:00" 1934 14528
"2015-05-17 00:00:00" 1938 15798
"2015-05-18 00:00:00" 1728 16702
"2015-05-19 00:00:00" 1642 17972
"2015-05-20 00:00:00" 1632 17911
"2015-05-21 00:00:00" 1682 17369
"2015-05-22 00:00:00" 1730 16133
"2015-05-23 00:00:00" 1829 15473
"2015-05-24 00:00:00" 1762 16165
"2015-05-25 00:00:00" 2035 14196
"2015-05-26 00:00:00" 1811 15832
"2015-05-27 00:00:00" 1612 18028
"2015-05-28 00:00:00" 1565 18384
"2015-05-29 00:00:00" 1639 17424
"2015-05-30 00:00:00" 1796 15795
"2015-05-31 00:00:00" 1942 15165
"2015-06-01 00:00:00" 1931 15639
"2015-06-02 00:00:00" 1820 16571
"2015-06-03 00:00:00" 1717 17071
"2015-06-04 00:00:00" 1984 14834
"2015-06-05 00:00:00" 1791 16245
"2015-06-06 00:00:00" 1808 15640
"2015-06-07 00:00:00" 1727 17307
"2015-06-08 00:00:00" 1912 15017
"2015-06-09 00:00:00" 1882 15294
"2015-06-10 00:00:00" 1592 17488
"2015-06-11 00:00:00" 1629 17083
"2015-06-12 00:00:00" 1673 16152
"2015-06-13 00:00:00" 1639 16147
"2015-06-14 00:00:00" 1751 15901
"2015-06-15 00:00:00" 1794 15497
"2015-06-16 00:00:00" 1782 15770
"2015-06-17 00:00:00" 1844 15346
"2015-06-18 00:00:00" 1890 14841
"2015-06-19 00:00:00" 1938 14161
"2015-06-20 00:00:00" 2088 13035
"2015-06-21 00:00:00" 2126 13050
"2015-06-22 00:00:00" 2042 13872
"2015-06-23 00:00:00" 1921 14934
"2015-06-24 00:00:00" 1832 15621
"2015-06-25 00:00:00" 1824 15659
"2015-06-26 00:00:00" 1973 15066
"2015-06-27 00:00:00" 1944 14076
"2015-06-28 00:00:00" 2023 14229
"2015-06-29 00:00:00" 1934 14869
"2015-06-30 00:00:00" 1760 16084
"2015-07-01 00:00:00" 1815 15915
"2015-07-02 00:00:00" 1874 14993
"2015-07-03 00:00:00" 1891 14823
"2015-07-04 00:00:00" 1745 15504
"2015-07-05 00:00:00" 1841 15309
"2015-07-06 00:00:00" 1829 15810
"2015-07-07 00:00:00" 1792 16377
"2015-07-08 00:00:00" 1860 15849
"2015-07-09 00:00:00" 1915 15559
"2015-07-10 00:00:00" 1912 15135
"2015-07-11 00:00:00" 1777 15487
"2015-07-12 00:00:00" 1695 16968
"2015-07-13 00:00:00" 1854 16118
"2015-07-14 00:00:00" 2043 14914
"2015-07-15 00:00:00" 2090 14742
"2015-07-16 00:00:00" 1324 21374
"2015-07-17 00:00:00" 1141 22918
"2015-07-18 00:00:00" 1246 20122
"2015-07-19 00:00:00" 1356 19477
"2015-07-20 00:00:00" 1529 18557
"2015-07-21 00:00:00" 1611 18121
"2015-07-22 00:00:00" 1636 18166
"2015-07-23 00:00:00" 1663 17867
"2015-07-24 00:00:00" 1826 15715
"2015-07-25 00:00:00" 1636 16646
"2015-07-26 00:00:00" 1491 18677
"2015-07-27 00:00:00" 1261 22374
"2015-07-28 00:00:00" 1100 25459
"2015-07-29 00:00:00" 1158 24318
"2015-07-30 00:00:00" 1235 22817
"2015-07-31 00:00:00" 1264 22386
"2015-08-01 00:00:00" 1217 21368
"2015-08-02 00:00:00" 1445 18794
"2015-08-03 00:00:00" 1093 24845
"2015-08-04 00:00:00" 1132 24886
"2015-08-05 00:00:00" 1099 25212
"2015-08-06 00:00:00" 1050 26467
"2015-08-07 00:00:00" 1107 24032
"2015-08-08 00:00:00" 1231 21051
"2015-08-09 00:00:00" 1114 23784
"2015-08-10 00:00:00" 1073 25854
"2015-08-11 00:00:00" 1128 24823
"2015-08-12 00:00:00" 925 29466
"2015-08-13 00:00:00" 931 28915
"2015-08-14 00:00:00" 946 27625
"2015-08-15 00:00:00" 1206 21204
"2015-08-16 00:00:00" 1126 23789
"2015-08-17 00:00:00" 1106 25273
"2015-08-18 00:00:00" 940 28484
"2015-08-19 00:00:00" 986 27368
"2015-08-20 00:00:00" 968 28048
"2015-08-21 00:00:00" 994 27146
"2015-08-22 00:00:00" 1144 23191
"2015-08-23 00:00:00" 1049 26000
"2015-08-24 00:00:00" 1042 26471
"2015-08-25 00:00:00" 960 28324
"2015-08-26 00:00:00" 929 28449
"2015-08-27 00:00:00" 822 31111
"2015-08-28 00:00:00" 905 28189
"2015-08-29 00:00:00" 1039 24643
"2015-08-30 00:00:00" 1064 28587
"2015-08-31 00:00:00" 838 30044
"2015-09-01 00:00:00" 892 28975
"2015-09-02 00:00:00" 868 29203
"2015-09-03 00:00:00" 868 29048
"2015-09-04 00:00:00" 876 28337
"2015-09-05 00:00:00" 1036 24233
"2015-09-06 00:00:00" 911 27844
"2015-09-07 00:00:00" 847 30153
"2015-09-08 00:00:00" 850 30384
"2015-09-09 00:00:00" 862 29431
"2015-09-10 00:00:00" 871 29244
"2015-09-11 00:00:00" 941 26978
"2015-09-12 00:00:00" 1096 23699
"2015-09-13 00:00:00" 1009 26157
"2015-09-14 00:00:00" 834 30001
"2015-09-15 00:00:00" 896 29073
"2015-09-16 00:00:00" 943 27719
"2015-09-17 00:00:00" 877 28703
"2015-09-18 00:00:00" 941 26650
"2015-09-19 00:00:00" 1056 24224
"2015-09-20 00:00:00" 1051 25118
"2015-09-21 00:00:00" 866 29055
"2015-09-22 00:00:00" 935 27511
"2015-09-23 00:00:00" 1014 25665
"2015-09-24 00:00:00" 1128 22286
"2015-09-25 00:00:00" 1052 23925
"2015-09-26 00:00:00" 1168 22003
"2015-09-27 00:00:00" 1054 24350
"2015-09-28 00:00:00" 863 28732
"2015-09-29 00:00:00" 870 28407
"2015-09-30 00:00:00" 852 28917
"2015-10-01 00:00:00" 796 30594
"2015-10-02 00:00:00" 898 27222
"2015-10-03 00:00:00" 1033 23907
"2015-10-04 00:00:00" 1024 24983
"2015-10-05 00:00:00" 825 29656
"2015-10-06 00:00:00" 785 31163
"2015-10-07 00:00:00" 834 29628
"2015-10-08 00:00:00" 885 28167
"2015-10-09 00:00:00" 900 27464
"2015-10-10 00:00:00" 1063 23484
"2015-10-11 00:00:00" 943 26320
"2015-10-12 00:00:00" 884 28590
"2015-10-13 00:00:00" 1096 23909
"2015-10-14 00:00:00" 1093 23597
"2015-10-15 00:00:00" 1027 24615
"2015-10-16 00:00:00" 920 26462
"2015-10-17 00:00:00" 1161 21635
"2015-10-18 00:00:00" 1007 25585
"2015-10-19 00:00:00" 901 27645
"2015-10-20 00:00:00" 953 26676
"2015-10-21 00:00:00" 853 29741
"2015-10-22 00:00:00" 852 29283
"2015-10-23 00:00:00" 920 28600
"2015-10-24 00:00:00" 1056 25975
"2015-10-25 00:00:00" 1016 27893
"2015-10-26 00:00:00" 800 31534
"2015-10-27 00:00:00" 796 31479
"2015-10-28 00:00:00" 760 33093
"2015-10-29 00:00:00" 788 32159
"2015-10-30 00:00:00" 819 30326
"2015-10-31 00:00:00" 1019 25005
"2015-11-01 00:00:00" 919 28736
"2015-11-02 00:00:00" 817 31077
"2015-11-03 00:00:00" 862 29942
"2015-11-04 00:00:00" 888 29310
"2015-11-05 00:00:00" 820 30524
"2015-11-06 00:00:00" 927 27127
"2015-11-07 00:00:00" 1027 25475
"2015-11-08 00:00:00" 994 26787
"2015-11-09 00:00:00" 883 28897
"2015-11-10 00:00:00" 736 34224
"2015-11-11 00:00:00" 747 33768
"2015-11-12 00:00:00" 778 32469
"2015-11-13 00:00:00" 818 32952
"2015-11-14 00:00:00" 1100 26570
"2015-11-15 00:00:00" 899 30481
"2015-11-16 00:00:00" 828 31350
"2015-11-17 00:00:00" 776 36451
"2015-11-18 00:00:00" 883 30092
"2015-11-19 00:00:00" 775 33159
"2015-11-20 00:00:00" 906 28060
"2015-11-21 00:00:00" 1013 26457
"2015-11-22 00:00:00" 967 28711
"2015-11-23 00:00:00" 837 31228
"2015-11-24 00:00:00" 844 29677
"2015-11-25 00:00:00" 710 36286
"2015-11-26 00:00:00" 736 34482
"2015-11-27 00:00:00" 931 27429
"2015-11-28 00:00:00" 1135 23193
"2015-11-29 00:00:00" 925 28818
"2015-11-30 00:00:00" 866 30320
"2015-12-01 00:00:00" 831 31293
"2015-12-02 00:00:00" 897 31271
"2015-12-03 00:00:00" 927 28995
"2015-12-04 00:00:00" 918 28237
"2015-12-05 00:00:00" 1182 22624
"2015-12-06 00:00:00" 944 29332
"2015-12-07 00:00:00" 999 27821
"2015-12-08 00:00:00" 1173 24200
"2015-12-09 00:00:00" 1106 25591
"2015-12-10 00:00:00" 982 28430
"2015-12-11 00:00:00" 1004 27095
"2015-12-12 00:00:00" 1112 24628
"2015-12-13 00:00:00" 1021 27270
"2015-12-14 00:00:00" 1035 27474
"2015-12-15 00:00:00" 1120 25046
"2015-12-16 00:00:00" 960 28535
"2015-12-17 00:00:00" 1173 22154
"2015-12-18 00:00:00" 1110 22790
"2015-12-19 00:00:00" 1152 21870
"2015-12-20 00:00:00" 1110 24343
"2015-12-21 00:00:00" 1279 21058
"2015-12-22 00:00:00" 1244 21363
"2015-12-23 00:00:00" 1152 23052
"2015-12-24 00:00:00" 1235 20262
"2015-12-25 00:00:00" 1127 21057
"2015-12-26 00:00:00" 1159 21326
"2015-12-27 00:00:00" 1176 22415
"2015-12-28 00:00:00" 1342 20481
"2015-12-29 00:00:00" 1140 23878
"2015-12-30 00:00:00" 1264 22358
"2015-12-31 00:00:00" 1083 25321
"2016-01-01 00:00:00" 1074 23214
"2016-01-02 00:00:00" 1308 19972
"2016-01-03 00:00:00" 1114 24700
"2016-01-04 00:00:00" 950 28624
"2016-01-05 00:00:00" 995 27550
"2016-01-06 00:00:00" 924 29106
"2016-01-07 00:00:00" 922 28333
"2016-01-08 00:00:00" 975 26517
"2016-01-09 00:00:00" 1149 22943
"2016-01-10 00:00:00" 962 27679
"2016-01-11 00:00:00" 945 28353
"2016-01-12 00:00:00" 912 28707
"2016-01-13 00:00:00" 899 29280
"2016-01-14 00:00:00" 899 29965
"2016-01-15 00:00:00" 934 27876
"2016-01-16 00:00:00" 1145 22722
"2016-01-17 00:00:00" 1040 25890
"2016-01-18 00:00:00" 753 35732
"2016-01-19 00:00:00" 657 35083
"2016-01-20 00:00:00" 810 32607
"2016-01-21 00:00:00" 823 31821
"2016-01-22 00:00:00" 1052 25422
"2016-01-23 00:00:00" 1040 24979
"2016-01-24 00:00:00" 946 28334
"2016-01-25 00:00:00" 858 30460
"2016-01-26 00:00:00" 808 32093
"2016-01-27 00:00:00" 862 30735
"2016-01-28 00:00:00" 815 32185
"2016-01-29 00:00:00" 863 29655
"2016-01-30 00:00:00" 1014 25317
"2016-01-31 00:00:00" 874 29698
"2016-02-01 00:00:00" 834 30861
"2016-02-02 00:00:00" 816 31658
"2016-02-03 00:00:00" 763 33999
"2016-02-04 00:00:00" 782 31804
"2016-02-05 00:00:00" 891 28445
"2016-02-06 00:00:00" 1028 24752
"2016-02-07 00:00:00" 1027 25988
"2016-02-08 00:00:00" 873 28767
"2016-02-09 00:00:00" 844 30455
"2016-02-10 00:00:00" 823 31471
"2016-02-11 00:00:00" 765 33824
"2016-02-12 00:00:00" 804 31784
"2016-02-13 00:00:00" 984 27179
"2016-02-14 00:00:00" 942 28128
"2016-02-15 00:00:00" 839 31522
"2016-02-16 00:00:00" 802 32403
"2016-02-17 00:00:00" 800 32866
"2016-02-18 00:00:00" 768 33352
"2016-02-19 00:00:00" 755 34111
"2016-02-20 00:00:00" 932 27855
"2016-02-21 00:00:00" 879 31619
"2016-02-22 00:00:00" 854 30957
"2016-02-23 00:00:00" 776 33969
"2016-02-24 00:00:00" 696 38112
"2016-02-25 00:00:00" 758 34591
"2016-02-26 00:00:00" 836 31022
"2016-02-27 00:00:00" 1010 27429
"2016-02-28 00:00:00" 1001 27528
"2016-02-29 00:00:00" 771 33544
"2016-03-01 00:00:00" 764 33629
"2016-03-02 00:00:00" 812 32137
"2016-03-03 00:00:00" 763 33038
"2016-03-04 00:00:00" 854 29826
"2016-03-05 00:00:00" 964 27006
"2016-03-06 00:00:00" 824 32371
"2016-03-07 00:00:00" 746 34995
"2016-03-08 00:00:00" 977 27627
"2016-03-09 00:00:00" 983 27367
"2016-03-10 00:00:00" 879 30046
"2016-03-11 00:00:00" 994 25715
"2016-03-12 00:00:00" 897 27396
"2016-03-13 00:00:00" 933 26972
"2016-03-14 00:00:00" 903 29152
"2016-03-15 00:00:00" 842 31358
"2016-03-16 00:00:00" 859 31230
"2016-03-17 00:00:00" 887 29846
"2016-03-18 00:00:00" 807 32135
"2016-03-19 00:00:00" 957 27078
"2016-03-20 00:00:00" 1035 26450
"2016-03-21 00:00:00" 738 35471
"2016-03-22 00:00:00" 786 34221
"2016-03-23 00:00:00" 706 36333
"2016-03-24 00:00:00" 938 28109
"2016-03-25 00:00:00" 860 29760
"2016-03-26 00:00:00" 967 26147
"2016-03-27 00:00:00" 887 29050
"2016-03-28 00:00:00" 726 36216
"2016-03-29 00:00:00" 1022 38238
"2016-03-30 00:00:00" 900 32968
"2016-03-31 00:00:00" 775 35176
"2016-04-01 00:00:00" 885 30335
"2016-04-02 00:00:00" 923 28746
"2016-04-03 00:00:00" 855 32472
"2016-04-04 00:00:00" 817 32903
"2016-04-05 00:00:00" 913 30220
"2016-04-06 00:00:00" 900 29662
"2016-04-07 00:00:00" 902 29307
"2016-04-08 00:00:00" 901 28280
"2016-04-09 00:00:00" 1047 25018
"2016-04-10 00:00:00" 974 27611
"2016-04-11 00:00:00" 880 30099
"2016-04-12 00:00:00" 950 28286
"2016-04-13 00:00:00" 799 33560
"2016-04-14 00:00:00" 746 35657
"2016-04-15 00:00:00" 891 32363
"2016-04-16 00:00:00" 835 31151
"2016-04-17 00:00:00" 905 31283
"2016-04-18 00:00:00" 883 30114
"2016-04-19 00:00:00" 881 30473
"2016-04-20 00:00:00" 911 29716
"2016-04-21 00:00:00" 820 31926
"2016-04-22 00:00:00" 825 30845
"2016-04-23 00:00:00" 1620 28818
"2016-04-24 00:00:00" 1502 26529
"2016-04-25 00:00:00" 949 28721
"2016-04-26 00:00:00" 739 35855
"2016-04-27 00:00:00" 758 34784
"2016-04-28 00:00:00" 852 31352
"2016-04-29 00:00:00" 728 35473
"2016-04-30 00:00:00" 885 29324
"2016-05-01 00:00:00" 843 31336
"2016-05-02 00:00:00" 791 33683
"2016-05-03 00:00:00" 696 37915
"2016-05-04 00:00:00" 704 30976
"2016-05-05 00:00:00" 944 29215
"2016-05-06 00:00:00" 961 27911
"2016-05-07 00:00:00" 1016 26448
"2016-05-08 00:00:00" 988 27882
"2016-05-09 00:00:00" 848 31988
"2016-05-10 00:00:00" 744 35849
"2016-05-11 00:00:00" 795 33468
"2016-05-12 00:00:00" 789 33903
"2016-05-13 00:00:00" 810 31935
"2016-05-14 00:00:00" 871 30093
"2016-05-15 00:00:00" 933 29003
"2016-05-16 00:00:00" 910 29371
"2016-05-17 00:00:00" 756 34364
"2016-05-18 00:00:00" 795 34740
"2016-05-19 00:00:00" 898 29714
"2016-05-20 00:00:00" 853 30293
"2016-05-21 00:00:00" 974 26564
"2016-05-22 00:00:00" 976 27702
"2016-05-23 00:00:00" 817 31704
"2016-05-24 00:00:00" 765 34061
"2016-05-25 00:00:00" 742 34932
"2016-05-26 00:00:00" 788 32822
"2016-05-27 00:00:00" 841 30190
"2016-05-28 00:00:00" 940 26945
"2016-05-29 00:00:00" 863 30316
"2016-05-30 00:00:00" 811 32152
"2016-05-31 00:00:00" 903 29299
"2016-06-01 00:00:00" 1000 26758
"2016-06-02 00:00:00" 828 31863
"2016-06-03 00:00:00" 1015 25634
"2016-06-04 00:00:00" 994 26063
"2016-06-05 00:00:00" 1189 23576
"2016-06-06 00:00:00" 1130 24498
"2016-06-07 00:00:00" 1023 26987
"2016-06-08 00:00:00" 1052 26933
"2016-06-09 00:00:00" 1042 26570
"2016-06-10 00:00:00" 953 28297
"2016-06-11 00:00:00" 1039 25321
"2016-06-12 00:00:00" 1148 25335
"2016-06-13 00:00:00" 1033 27371
"2016-06-14 00:00:00" 1078 26033
"2016-06-15 00:00:00" 1072 26087
"2016-06-16 00:00:00" 1077 26181
"2016-06-17 00:00:00" 1047 26034
"2016-06-18 00:00:00" 950 27537
"2016-06-19 00:00:00" 1111 24850
"2016-06-20 00:00:00" 1039 26628
"2016-06-21 00:00:00" 1140 25136
"2016-06-22 00:00:00" 1146 25452
"2016-06-23 00:00:00" 1096 25954
"2016-06-24 00:00:00" 1106 25997
"2016-06-25 00:00:00" 1030 25178
"2016-06-26 00:00:00" 1262 23408
"2016-06-27 00:00:00" 1073 26467
"2016-06-28 00:00:00" 1291 22150
"2016-06-29 00:00:00" 1078 25347
"2016-06-30 00:00:00" 1174 23343
"2016-07-01 00:00:00" 1115 24023
"2016-07-02 00:00:00" 1083 24027
"2016-07-03 00:00:00" 1067 25177
"2016-07-04 00:00:00" 1024 27125
"2016-07-05 00:00:00" 856 30567
"2016-07-06 00:00:00" 677 36658
"2016-07-07 00:00:00" 811 32335
"2016-07-08 00:00:00" 1100 24148
"2016-07-09 00:00:00" 1114 22944
"2016-07-10 00:00:00" 1073 24970
"2016-07-11 00:00:00" 1079 25133
"2016-07-12 00:00:00" 1091 25046
"2016-07-13 00:00:00" 1228 22996
"2016-07-14 00:00:00" 1077 25832
"2016-07-15 00:00:00" 1120 26887
"2016-07-16 00:00:00" 938 29369
"2016-07-17 00:00:00" 923 29248
"2016-07-18 00:00:00" 820 33640
"2016-07-19 00:00:00" 772 36016
"2016-07-20 00:00:00" 754 35536
"2016-07-21 00:00:00" 770 35590
"2016-07-22 00:00:00" 798 34278
"2016-07-23 00:00:00" 886 29322
"2016-07-24 00:00:00" 885 29561
"2016-07-25 00:00:00" 711 36877
"2016-07-26 00:00:00" 743 36080
"2016-07-27 00:00:00" 770 35406
"2016-07-28 00:00:00" 704 37673
"2016-07-29 00:00:00" 828 32126
"2016-07-30 00:00:00" 815 30892
"2016-07-31 00:00:00" 826 31900
"2016-08-01 00:00:00" 845 31929
"2016-08-02 00:00:00" 777 33970
"2016-08-03 00:00:00" 766 34168
"2016-08-04 00:00:00" 704 36888
"2016-08-05 00:00:00" 804 32890
"2016-08-06 00:00:00" 895 27951
"2016-08-07 00:00:00" 865 30131
"2016-08-08 00:00:00" 873 30715
"2016-08-09 00:00:00" 742 35564
"2016-08-10 00:00:00" 709 37145
"2016-08-11 00:00:00" 741 35170
"2016-08-12 00:00:00" 738 35133
"2016-08-13 00:00:00" 764 33120
"2016-08-14 00:00:00" 731 35627
"2016-08-15 00:00:00" 747 35125
"2016-08-16 00:00:00" 764 34550
"2016-08-17 00:00:00" 780 33800
"2016-08-18 00:00:00" 766 34253
"2016-08-19 00:00:00" 725 35553
"2016-08-20 00:00:00" 864 30046
"2016-08-21 00:00:00" 708 36435
"2016-08-22 00:00:00" 686 36670
"2016-08-23 00:00:00" 644 38944
"2016-08-24 00:00:00" 694 37164
"2016-08-25 00:00:00" 605 40868
"2016-08-26 00:00:00" 718 34814
"2016-08-27 00:00:00" 770 31750
"2016-08-28 00:00:00" 739 35356
"2016-08-29 00:00:00" 696 37671
"2016-08-30 00:00:00" 696 36885
"2016-08-31 00:00:00" 619 42252
"2016-09-01 00:00:00" 579 44403
"2016-09-02 00:00:00" 628 39159
"2016-09-03 00:00:00" 723 34706
"2016-09-04 00:00:00" 673 37474
"2016-09-05 00:00:00" 567 43372
"2016-09-06 00:00:00" 596 41740
"2016-09-07 00:00:00" 658 38612
"2016-09-08 00:00:00" 211 39675
"2016-09-09 00:00:00" 674 36773
"2016-09-10 00:00:00" 805 31755
"2016-09-11 00:00:00" 826 32065
"2016-09-12 00:00:00" 848 30913
"2016-09-13 00:00:00" 993 26543
"2016-09-14 00:00:00" 830 31025
"2016-09-15 00:00:00" 627 39302
"2016-09-16 00:00:00" 622 39212
"2016-09-17 00:00:00" 717 34705
"2016-09-18 00:00:00" 746 35182
"2016-09-19 00:00:00" 548 45570
"2016-09-20 00:00:00" 568 43628
"2016-09-21 00:00:00" 589 43258
"2016-09-22 00:00:00" 558 44046
"2016-09-23 00:00:00" 644 37606
"2016-09-24 00:00:00" 752 32337
"2016-09-25 00:00:00" 679 37228
"2016-09-26 00:00:00" 570 44726
"2016-09-27 00:00:00" 570 43656
"2016-09-28 00:00:00" 551 45542
"2016-09-29 00:00:00" 518 46878
"2016-09-30 00:00:00" 609 40587
"2016-10-01 00:00:00" 657 37868
"2016-10-02 00:00:00" 580 44549
"2016-10-03 00:00:00" 548 45957
"2016-10-04 00:00:00" 521 48480
"2016-10-05 00:00:00" 559 45584
"2016-10-06 00:00:00" 563 45512
"2016-10-07 00:00:00" 556 44272
"2016-10-08 00:00:00" 631 39782
"2016-10-09 00:00:00" 638 42452
"2016-10-10 00:00:00" 608 43037
"2016-10-11 00:00:00" 607 43612
"2016-10-12 00:00:00" 544 47334
"2016-10-13 00:00:00" 538 54280
"2016-10-14 00:00:00" 622 46329
"2016-10-15 00:00:00" 701 38293
"2016-10-16 00:00:00" 639 42726
"2016-10-17 00:00:00" 582 44933
"2016-10-18 00:00:00" 560 47345
"2016-10-19 00:00:00" 723 38965
"2016-10-20 00:00:00" 640 42217
"2016-10-21 00:00:00" 587 42204
"2016-10-22 00:00:00" 704 37487
"2016-10-23 00:00:00" 671 39896
"2016-10-24 00:00:00" 557 47100
"2016-10-25 00:00:00" 608 44738
"2016-10-26 00:00:00" 594 45699
"2016-10-27 00:00:00" 550 48804
"2016-10-28 00:00:00" 561 46502
"2016-10-29 00:00:00" 700 37168
"2016-10-30 00:00:00" 643 41985
"2016-10-31 00:00:00" 559 47025
"2016-11-01 00:00:00" 595 45426
"2016-11-02 00:00:00" 576 46113
"2016-11-03 00:00:00" 695 38532
"2016-11-04 00:00:00" 720 36527
"2016-11-05 00:00:00" 805 33004
"2016-11-06 00:00:00" 697 39306
"2016-11-07 00:00:00" 634 41118
"2016-11-08 00:00:00" 586 47862
"2016-11-09 00:00:00" 506 60054
"2016-11-10 00:00:00" 574 45167
"2016-11-11 00:00:00" 581 43873
"2016-11-12 00:00:00" 689 38486
"2016-11-13 00:00:00" 681 40185
"2016-11-14 00:00:00" 641 41704
"2016-11-15 00:00:00" 575 46315
"2016-11-16 00:00:00" 615 43625
"2016-11-17 00:00:00" 531 48840
"2016-11-18 00:00:00" 585 44081
"2016-11-19 00:00:00" 731 38672
"2016-11-20 00:00:00" 672 41314
"2016-11-21 00:00:00" 615 43437
"2016-11-22 00:00:00" 542 48215
"2016-11-23 00:00:00" 545 47897
"2016-11-24 00:00:00" 581 44616
"2016-11-25 00:00:00" 652 39372
"2016-11-26 00:00:00" 725 37203
"2016-11-27 00:00:00" 720 38211
"2016-11-28 00:00:00" 527 48340
"2016-11-29 00:00:00" 559 48720
"2016-11-30 00:00:00" 535 48684
"2016-12-01 00:00:00" 564 46413
"2016-12-02 00:00:00" 644 44564
"2016-12-03 00:00:00" 771 35340
"2016-12-04 00:00:00" 802 34787
"2016-12-05 00:00:00" 662 40928
"2016-12-06 00:00:00" 691 39465
"2016-12-07 00:00:00" 693 36063
"2016-12-09 00:00:00" 631 37587
"2016-12-10 00:00:00" 657 37048
"2016-12-11 00:00:00" 696 36758
"2016-12-12 00:00:00" 864 30295
"2016-12-13 00:00:00" 677 36935
"2016-12-14 00:00:00" 718 35991
"2016-12-15 00:00:00" 611 40008
"2016-12-16 00:00:00" 623 38491
"2016-12-17 00:00:00" 735 33107
"2016-12-18 00:00:00" 735 34103
"2016-12-19 00:00:00" 705 36198
"2016-12-20 00:00:00" 645 37852
"2016-12-21 00:00:00" 724 34073
"2016-12-22 00:00:00" 686 33720
"2016-12-23 00:00:00" 707 30144
"2016-12-24 00:00:00" 692 29444
"2016-12-25 00:00:00" 755 29182
"2016-12-26 00:00:00" 764 30029
"2016-12-27 00:00:00" 717 30179
"2016-12-28 00:00:00" 282 31080
"2016-12-29 00:00:00" 185 25720
"2016-12-31 00:00:00" 387 30091
"2017-01-01 00:00:00" 760 32176
"2017-01-02 00:00:00" 829 31335
"2017-01-03 00:00:00" 905 28923
"2017-01-04 00:00:00" 818 31916
"2017-01-05 00:00:00" 836 32108
"2017-01-06 00:00:00" 770 33489
"2017-01-07 00:00:00" 812 31063
"2017-01-08 00:00:00" 744 35112
"2017-01-09 00:00:00" 647 40690
"2017-01-10 00:00:00" 596 42955
"2017-01-11 00:00:00" 625 41135
"2017-01-12 00:00:00" 616 40940
"2017-01-13 00:00:00" 697 36180
"2017-01-14 00:00:00" 749 34515
"2017-01-15 00:00:00" 653 40037
"2017-01-16 00:00:00" 630 41817
"2017-01-17 00:00:00" 602 42085
"2017-01-18 00:00:00" 638 39731
"2017-01-19 00:00:00" 587 44732
"2017-01-20 00:00:00" 640 39246
"2017-01-21 00:00:00" 730 34833
"2017-01-22 00:00:00" 783 33304
"2017-01-23 00:00:00" 597 42138
"2017-01-24 00:00:00" 682 38908
"2017-01-25 00:00:00" 651 42276
"2017-01-26 00:00:00" 595 45239
"2017-01-27 00:00:00" 747 38904
"2017-01-28 00:00:00" 763 40521
"2017-01-29 00:00:00" 755 41363
"2017-01-30 00:00:00" 620 41760
"2017-01-31 00:00:00" 573 44672
"2017-02-01 00:00:00" 625 41448
"2017-02-02 00:00:00" 621 40982
"2017-02-03 00:00:00" 595 41182
"2017-02-04 00:00:00" 706 34925
"2017-02-05 00:00:00" 656 39295
"2017-02-06 00:00:00" 600 42249
"2017-02-07 00:00:00" 644 40182
"2017-02-08 00:00:00" 601 42868
"2017-02-09 00:00:00" 654 39284
"2017-02-10 00:00:00" 753 33744
"2017-02-11 00:00:00" 783 32438
"2017-02-12 00:00:00" 654 40224
"2017-02-13 00:00:00" 638 40776
"2017-02-14 00:00:00" 788 33532
"2017-02-15 00:00:00" 695 37242
"2017-02-16 00:00:00" 708 36413
"2017-02-17 00:00:00" 654 38279
"2017-02-18 00:00:00" 753 33062
"2017-02-19 00:00:00" 698 36378
"2017-02-20 00:00:00" 600 42043
"2017-02-21 00:00:00" 548 45326
"2017-02-22 00:00:00" 563 46101
"2017-02-23 00:00:00" 534 47080
"2017-02-24 00:00:00" 590 41997
"2017-02-25 00:00:00" 643 37704
"2017-02-26 00:00:00" 637 39629
"2017-02-27 00:00:00" 592 41759
"2017-02-28 00:00:00" 513 48326
"2017-03-01 00:00:00" 545 45902
"2017-03-02 00:00:00" 565 42812
"2017-03-03 00:00:00" 576 41703
"2017-03-04 00:00:00" 700 35638
"2017-03-05 00:00:00" 646 39785
"2017-03-06 00:00:00" 571 43243
"2017-03-07 00:00:00" 534 46324
"2017-03-08 00:00:00" 624 41870
"2017-03-09 00:00:00" 612 42953
"2017-03-10 00:00:00" 569 46926
"2017-03-11 00:00:00" 635 39722
"2017-03-12 00:00:00" 607 42496
"2017-03-13 00:00:00" 612 41616
"2017-03-14 00:00:00" 541 46911
"2017-03-15 00:00:00" 588 43264
"2017-03-16 00:00:00" 597 42743
"2017-03-17 00:00:00" 626 39312
"2017-03-18 00:00:00" 635 38657
"2017-03-19 00:00:00" 686 37036
"2017-03-20 00:00:00" 566 43832
"2017-03-21 00:00:00" 615 41482
"2017-03-22 00:00:00" 640 40076
"2017-03-23 00:00:00" 611 42487
"2017-03-24 00:00:00" 609 40343
"2017-03-25 00:00:00" 666 36489
"2017-03-26 00:00:00" 652 37646
"2017-03-27 00:00:00" 716 35042
"2017-03-28 00:00:00" 715 35295
"2017-03-29 00:00:00" 604 40350
"2017-03-30 00:00:00" 554 43991
"2017-03-31 00:00:00" 650 38106
"2017-04-01 00:00:00" 704 34343
"2017-04-02 00:00:00" 661 36975
"2017-04-03 00:00:00" 497 47587
"2017-04-04 00:00:00" 499 49374
"2017-04-05 00:00:00" 488 49761
"2017-04-06 00:00:00" 556 45056
"2017-04-07 00:00:00" 592 41763
"2017-04-08 00:00:00" 657 37050
"2017-04-09 00:00:00" 615 40088
"2017-04-10 00:00:00" 566 44220
"2017-04-11 00:00:00" 629 41451
"2017-04-12 00:00:00" 625 40995
"2017-04-13 00:00:00" 619 39980
"2017-04-14 00:00:00" 715 35094
"2017-04-15 00:00:00" 717 34784
"2017-04-16 00:00:00" 650 40192
"2017-04-17 00:00:00" 595 42705
"2017-04-18 00:00:00" 610 42752
"2017-04-19 00:00:00" 635 41892
"2017-04-20 00:00:00" 609 42621
"2017-04-21 00:00:00" 621 40516
"2017-04-22 00:00:00" 629 40111
"2017-04-23 00:00:00" 702 37898
"2017-04-24 00:00:00" 757 34886
"2017-04-25 00:00:00" 648 40182
"2017-04-26 00:00:00" 650 40446
"2017-04-27 00:00:00" 600 42599
"2017-04-28 00:00:00" 649 39061
"2017-04-29 00:00:00" 633 38701
"2017-04-30 00:00:00" 779 32808
"2017-05-01 00:00:00" 772 36001
"2017-05-02 00:00:00" 559 48947
"2017-05-03 00:00:00" 606 47002
"2017-05-04 00:00:00" 574 48762
"2017-05-05 00:00:00" 657 41737
"2017-05-06 00:00:00" 657 41133
"2017-05-07 00:00:00" 661 42669
"2017-05-08 00:00:00" 618 44320
"2017-05-09 00:00:00" 608 48357
"2017-05-10 00:00:00" 671 42174
"2017-05-11 00:00:00" 617 43857
"2017-05-12 00:00:00" 581 46279
"2017-05-13 00:00:00" 677 39579
"2017-05-14 00:00:00" 655 40555
"2017-05-15 00:00:00" 525 48968
"2017-05-16 00:00:00" 590 45256
"2017-05-17 00:00:00" 611 44968
"2017-05-18 00:00:00" 584 46887
"2017-05-19 00:00:00" 598 41992
"2017-05-20 00:00:00" 663 41355
"2017-05-21 00:00:00" 669 45344
"2017-05-22 00:00:00" 572 47999
"2017-05-23 00:00:00" 657 43108
"2017-05-24 00:00:00" 651 42826
"2017-05-25 00:00:00" 685 39887
"2017-05-26 00:00:00" 769 36113
"2017-05-27 00:00:00" 763 35546
"2017-05-28 00:00:00" 707 39518
"2017-05-29 00:00:00" 604 44387
"2017-05-30 00:00:00" 648 41831
"2017-05-31 00:00:00" 688 40478
"2017-06-01 00:00:00" 726 38672
"2017-06-02 00:00:00" 718 38274
"2017-06-03 00:00:00" 697 38879
"2017-06-04 00:00:00" 754 37822
"2017-06-05 00:00:00" 685 40722
"2017-06-06 00:00:00" 651 42274
"2017-06-07 00:00:00" 663 41987
"2017-06-08 00:00:00" 679 41312
"2017-06-09 00:00:00" 704 38860
"2017-06-10 00:00:00" 686 37432
"2017-06-11 00:00:00" 686 38408
"2017-06-12 00:00:00" 681 39537
"2017-06-13 00:00:00" 677 41024
"2017-06-14 00:00:00" 725 39853
"2017-06-15 00:00:00" 629 45094
"2017-06-16 00:00:00" 800 38106
"2017-06-17 00:00:00" 691 39848
"2017-06-18 00:00:00" 747 37086
"2017-06-19 00:00:00" 714 38906
"2017-06-20 00:00:00" 792 36167
"2017-06-21 00:00:00" 738 38753
"2017-06-22 00:00:00" 817 35325
"2017-06-23 00:00:00" 779 35627
"2017-06-24 00:00:00" 545 44857
"2017-06-25 00:00:00" 521 46887
"2017-06-26 00:00:00" 653 40195
"2017-06-27 00:00:00" 672 40810
"2017-06-28 00:00:00" 780 37029
"2017-06-29 00:00:00" 775 36937
"2017-06-30 00:00:00" 806 35233
"2017-07-01 00:00:00" 787 35939
"2017-07-02 00:00:00" 847 34347
"2017-07-03 00:00:00" 768 36556
"2017-07-04 00:00:00" 814 35885
"2017-07-05 00:00:00" 783 37875
"2017-07-06 00:00:00" 926 31832
"2017-07-07 00:00:00" 833 34558
"2017-07-08 00:00:00" 819 34883
"2017-07-09 00:00:00" 772 37426
"2017-07-10 00:00:00" 791 38026
"2017-07-11 00:00:00" 821 35848
"2017-07-12 00:00:00" 710 40597
"2017-07-13 00:00:00" 783 37165
"2017-07-14 00:00:00" 700 39308
"2017-07-15 00:00:00" 707 38497
"2017-07-16 00:00:00" 658 41366
"2017-07-17 00:00:00" 761 36793
"2017-07-18 00:00:00" 648 43904
"2017-07-19 00:00:00" 629 45555
"2017-07-20 00:00:00" 729 41055
"2017-07-21 00:00:00" 676 42164
"2017-07-22 00:00:00" 655 41845
"2017-07-23 00:00:00" 651 42467
"2017-07-24 00:00:00" 682 41493
"2017-07-25 00:00:00" 718 40579
"2017-07-26 00:00:00" 667 44270
"2017-07-27 00:00:00" 631 46099
"2017-07-28 00:00:00" 707 40014
"2017-07-29 00:00:00" 653 40160
"2017-07-30 00:00:00" 716 39401
"2017-07-31 00:00:00" 573 47126
"2017-08-01 00:00:00" 608 44542
"2017-08-02 00:00:00" 574 47458
"2017-08-03 00:00:00" 593 46506
"2017-08-04 00:00:00" 563 46398
"2017-08-05 00:00:00" 665 38774
"2017-08-06 00:00:00" 655 41074
"2017-08-07 00:00:00" 581 46677
"2017-08-08 00:00:00" 586 46696
"2017-08-09 00:00:00" 549 49359
"2017-08-10 00:00:00" 531 52898
"2017-08-11 00:00:00" 576 48870
"2017-08-12 00:00:00" 671 42603
"2017-08-13 00:00:00" 707 43166
"2017-08-14 00:00:00" 611 46946
"2017-08-15 00:00:00" 617 47165
"2017-08-16 00:00:00" 623 46670
"2017-08-17 00:00:00" 626 47662
"2017-08-18 00:00:00" 710 41610
"2017-08-19 00:00:00" 685 41718
"2017-08-20 00:00:00" 690 41481
"2017-08-21 00:00:00" 564 49781
"2017-08-22 00:00:00" 561 49229
"2017-08-23 00:00:00" 551 50196
"2017-08-24 00:00:00" 578 48890
"2017-08-25 00:00:00" 580 48185
"2017-08-26 00:00:00" 615 45371
"2017-08-27 00:00:00" 662 44165
"2017-08-28 00:00:00" 550 50531
"2017-08-29 00:00:00" 546 50326
"2017-08-30 00:00:00" 552 49440
"2017-08-31 00:00:00" 573 46984
"2017-09-01 00:00:00" 719 36239
"2017-09-02 00:00:00" 693 37784
"2017-09-03 00:00:00" 681 39695
"2017-09-04 00:00:00" 551 48797
"2017-09-05 00:00:00" 496 54600
"2017-09-06 00:00:00" 545 49886
"2017-09-07 00:00:00" 580 46253
"2017-09-08 00:00:00" 532 48574
"2017-09-09 00:00:00" 602 43409
"2017-09-10 00:00:00" 531 50194
"2017-09-11 00:00:00" 453 57990
"2017-09-12 00:00:00" 515 51403
"2017-09-13 00:00:00" 562 47687
"2017-09-14 00:00:00" 507 53786
"2017-09-15 00:00:00" 582 47013
"2017-09-16 00:00:00" 604 44767
"2017-09-17 00:00:00" 613 44996
"2017-09-18 00:00:00" 463 57383
"2017-09-19 00:00:00" 467 57970
"2017-09-20 00:00:00" 526 53629
"2017-09-21 00:00:00" 596 46064
"2017-09-22 00:00:00" 530 50371
"2017-09-23 00:00:00" 560 48486
"2017-09-24 00:00:00" 611 45608
"2017-09-25 00:00:00" 503 52405
"2017-09-26 00:00:00" 527 51615
"2017-09-27 00:00:00" 490 54235
"2017-09-28 00:00:00" 571 46876
"2017-09-29 00:00:00" 533 49011
"2017-09-30 00:00:00" 609 44444
"2017-10-01 00:00:00" 588 49057
"2017-10-02 00:00:00" 471 57541
"2017-10-03 00:00:00" 491 54217
"2017-10-04 00:00:00" 477 53931
"2017-10-05 00:00:00" 436 57366
"2017-10-06 00:00:00" 482 52087
"2017-10-07 00:00:00" 553 44995
"2017-10-08 00:00:00" 560 48196
"2017-10-09 00:00:00" 560 48069
"2017-10-10 00:00:00" 526 51114
"2017-10-11 00:00:00" 518 49373
"2017-10-12 00:00:00" 458 55379
"2017-10-13 00:00:00" 528 48216
"2017-10-14 00:00:00" 570 44992
"2017-10-15 00:00:00" 559 47976
"2017-10-16 00:00:00" 465 57836
"2017-10-17 00:00:00" 512 52056
"2017-10-18 00:00:00" 518 50850
"2017-10-19 00:00:00" 456 51304
"2017-10-20 00:00:00" 533 46511
"2017-10-21 00:00:00" 544 46774
"2017-10-22 00:00:00" 618 44618
"2017-10-23 00:00:00" 471 54487
"2017-10-24 00:00:00" 517 49290
"2017-10-25 00:00:00" 449 55851
"2017-10-26 00:00:00" 495 54361
"2017-10-27 00:00:00" 559 45605
"2017-10-28 00:00:00" 613 40580
"2017-10-29 00:00:00" 641 40029
"2017-10-30 00:00:00" 591 43309
"2017-10-31 00:00:00" 499 50551
"2017-11-01 00:00:00" 542 47986
"2017-11-02 00:00:00" 508 51470
"2017-11-03 00:00:00" 591 43717
"2017-11-04 00:00:00" 525 48970
"2017-11-05 00:00:00" 571 47593
"2017-11-06 00:00:00" 497 50509
"2017-11-07 00:00:00" 515 49368
"2017-11-08 00:00:00" 533 48962
"2017-11-09 00:00:00" 510 51506
"2017-11-10 00:00:00" 552 47205
"2017-11-11 00:00:00" 515 48827
"2017-11-12 00:00:00" 540 48488
"2017-11-13 00:00:00" 493 51779
"2017-11-14 00:00:00" 693 38815
"2017-11-15 00:00:00" 627 44596
"2017-11-16 00:00:00" 501 51094
"2017-11-17 00:00:00" 484 51502
"2017-11-18 00:00:00" 536 47403
"2017-11-19 00:00:00" 551 48339
"2017-11-20 00:00:00" 538 48911
"2017-11-21 00:00:00" 476 54426
"2017-11-22 00:00:00" 511 50895
"2017-11-23 00:00:00" 487 50463
"2017-11-24 00:00:00" 510 49964
"2017-11-25 00:00:00" 579 49417
"2017-11-26 00:00:00" 502 55923
"2017-11-27 00:00:00" 509 49391
"2017-11-28 00:00:00" 515 49281
"2017-11-29 00:00:00" 536 51249
"2017-11-30 00:00:00" 566 45550
"2017-12-01 00:00:00" 771 40473
"2017-12-02 00:00:00" 694 42613
"2017-12-03 00:00:00" 626 44733
"2017-12-04 00:00:00" 558 47822
"2017-12-05 00:00:00" 540 48862
"2017-12-06 00:00:00" 514 51986
"2017-12-07 00:00:00" 531 49782
"2017-12-08 00:00:00" 500 51424
"2017-12-09 00:00:00" 606 42181
"2017-12-10 00:00:00" 602 44757
"2017-12-11 00:00:00" 502 51580
"2017-12-12 00:00:00" 504 51304
"2017-12-13 00:00:00" 538 48595
"2017-12-14 00:00:00" 573 44765
"2017-12-15 00:00:00" 646 39340
"2017-12-16 00:00:00" 637 39151
"2017-12-17 00:00:00" 648 39668
"2017-12-18 00:00:00" 648 46217
"2017-12-19 00:00:00" 609 44092
"2017-12-20 00:00:00" 652 40538
"2017-12-21 00:00:00" 572 44068
"2017-12-22 00:00:00" 560 44610
"2017-12-23 00:00:00" 571 43247
"2017-12-24 00:00:00" 586 41154
"2017-12-25 00:00:00" 629 38785
"2017-12-26 00:00:00" 679 36480
"2017-12-27 00:00:00" 792 32778
"2017-12-28 00:00:00" 749 34223
"2017-12-29 00:00:00" 763 35670
"2017-12-30 00:00:00" 682 38253
"2017-12-31 00:00:00" 655 41707
"2018-01-01 00:00:00" 691 36374
"2018-01-02 00:00:00" 715 38226
"2018-01-03 00:00:00" 637 42023
"2018-01-04 00:00:00" 655 41133
"2018-01-05 00:00:00" 618 43775
"2018-01-06 00:00:00" 736 35742
"2018-01-07 00:00:00" 624 42021
"2018-01-08 00:00:00" 506 50702
"2018-01-09 00:00:00" 538 47916
"2018-01-10 00:00:00" 542 48975
"2018-01-11 00:00:00" 528 53112
"2018-01-12 00:00:00" 583 45842
"2018-01-13 00:00:00" 707 39555
"2018-01-14 00:00:00" 715 39764
"2018-01-15 00:00:00" 589 48352
"2018-01-16 00:00:00" 566 49234
"2018-01-17 00:00:00" 546 50502
"2018-01-18 00:00:00" 531 50447
"2018-01-19 00:00:00" 568 46945
"2018-01-20 00:00:00" 631 42435
"2018-01-21 00:00:00" 691 40210
"2018-01-22 00:00:00" 584 47648
"2018-01-23 00:00:00" 645 44066
"2018-01-24 00:00:00" 631 44632
"2018-01-25 00:00:00" 581 51524
"2018-01-26 00:00:00" 668 42045
"2018-01-27 00:00:00" 661 41671
"2018-01-28 00:00:00" 678 41855
"2018-01-29 00:00:00" 566 48516
"2018-01-30 00:00:00" 610 46928
"2018-01-31 00:00:00" 548 50096
"2018-02-01 00:00:00" 559 49022
"2018-02-02 00:00:00" 590 46194
"2018-02-03 00:00:00" 719 40077
"2018-02-04 00:00:00" 648 44014
"2018-02-05 00:00:00" 580 48704
"2018-02-06 00:00:00" 527 53181
"2018-02-07 00:00:00" 575 49551
"2018-02-08 00:00:00" 537 51352
"2018-02-09 00:00:00" 559 50173
"2018-02-10 00:00:00" 753 38072
"2018-02-11 00:00:00" 813 34532
"2018-02-12 00:00:00" 612 44774
"2018-02-13 00:00:00" 624 44793
"2018-02-14 00:00:00" 593 48111
"2018-02-15 00:00:00" 597 46942
"2018-02-16 00:00:00" 584 47167
"2018-02-17 00:00:00" 729 39349
"2018-02-18 00:00:00" 648 44138
"2018-02-19 00:00:00" 637 45110
"2018-02-20 00:00:00" 696 41861
"2018-02-21 00:00:00" 603 49436
"2018-02-22 00:00:00" 577 49079
"2018-02-23 00:00:00" 660 43177
"2018-02-24 00:00:00" 748 40051
"2018-02-25 00:00:00" 675 47466
"2018-02-26 00:00:00" 668 43729
"2018-02-27 00:00:00" 624 46654
"2018-02-28 00:00:00" 586 49497
"2018-03-01 00:00:00" 563 51963
"2018-03-02 00:00:00" 671 41432
"2018-03-03 00:00:00" 662 42621
"2018-03-04 00:00:00" 631 44992
"2018-03-05 00:00:00" 603 44967
"2018-03-06 00:00:00" 617 44803
"2018-03-07 00:00:00" 523 51666
"2018-03-08 00:00:00" 633 43739
"2018-03-09 00:00:00" 616 43996
"2018-03-10 00:00:00" 659 41240
"2018-03-11 00:00:00" 660 42779
"2018-03-12 00:00:00" 569 46437
"2018-03-13 00:00:00" 636 42509
"2018-03-14 00:00:00" 569 47658
"2018-03-15 00:00:00" 580 46267
"2018-03-16 00:00:00" 617 42302
"2018-03-17 00:00:00" 653 38443
"2018-03-18 00:00:00" 602 45465
"2018-03-19 00:00:00" 675 40474
"2018-03-20 00:00:00" 618 42771
"2018-03-21 00:00:00" 537 49438
"2018-03-22 00:00:00" 521 48731
"2018-03-23 00:00:00" 569 45294
"2018-03-24 00:00:00" 636 40194
"2018-03-25 00:00:00" 634 41762
"2018-03-26 00:00:00" 567 46245
"2018-03-27 00:00:00" 566 46823
"2018-03-28 00:00:00" 546 44618
"2018-03-29 00:00:00" 565 43097
"2018-03-30 00:00:00" 830 31536
"2018-03-31 00:00:00" 783 33697
"2018-04-01 00:00:00" 760 35404
"2018-04-02 00:00:00" 682 39086
"2018-04-03 00:00:00" 659 41130
"2018-04-04 00:00:00" 603 44755
"2018-04-05 00:00:00" 594 45429
"2018-04-06 00:00:00" 632 40596
"2018-04-07 00:00:00" 749 36311
"2018-04-08 00:00:00" 618 44074
"2018-04-09 00:00:00" 591 44635
"2018-04-10 00:00:00" 628 42519
"2018-04-11 00:00:00" 694 39303
"2018-04-12 00:00:00" 113 32731
"2018-04-13 00:00:00" 635 41211
"2018-04-14 00:00:00" 774 34762
"2018-04-15 00:00:00" 765 35659
"2018-04-16 00:00:00" 587 44951
"2018-04-17 00:00:00" 606 43220
"2018-04-18 00:00:00" 592 45821
"2018-04-19 00:00:00" 627 43088
"2018-04-20 00:00:00" 648 40896
"2018-04-21 00:00:00" 622 42511
"2018-04-22 00:00:00" 754 37814
"2018-04-23 00:00:00" 591 46068
"2018-04-24 00:00:00" 620 44243
"2018-04-25 00:00:00" 629 42447
"2018-04-26 00:00:00" 634 42703
"2018-04-27 00:00:00" 639 42163
"2018-04-28 00:00:00" 657 39429
"2018-04-29 00:00:00" 730 36944
"2018-04-30 00:00:00" 722 37218
"2018-05-01 00:00:00" 709 38647
"2018-05-02 00:00:00" 619 43162
"2018-05-03 00:00:00" 600 43855
"2018-05-04 00:00:00" 578 44491
"2018-05-05 00:00:00" 678 38651
"2018-05-06 00:00:00" 715 39357
"2018-05-07 00:00:00" 581 46139
"2018-05-08 00:00:00" 647 42417
"2018-05-09 00:00:00" 712 39293
"2018-05-10 00:00:00" 756 36526
"2018-05-11 00:00:00" 636 41668
"2018-05-12 00:00:00" 741 37471
"2018-05-13 00:00:00" 703 39775
"2018-05-14 00:00:00" 723 41150
"2018-05-15 00:00:00" 706 42732
"2018-05-16 00:00:00" 775 38607
"2018-05-17 00:00:00" 740 39841
"2018-05-18 00:00:00" 800 38348
"2018-05-19 00:00:00" 936 32533
"2018-05-20 00:00:00" 992 34267
"2018-05-21 00:00:00" 774 39111
"2018-05-22 00:00:00" 788 38089
"2018-05-23 00:00:00" 653 43669
"2018-05-24 00:00:00" 698 41380
"2018-05-25 00:00:00" 798 35654
"2018-05-26 00:00:00" 585 34784
"2018-05-27 00:00:00" 951 32311
"2018-05-28 00:00:00" 791 37362
"2018-05-29 00:00:00" 848 35770
"2018-05-30 00:00:00" 765 38276
"2018-05-31 00:00:00" 930 32340
"2018-06-01 00:00:00" 967 30959
"2018-06-02 00:00:00" 953 30687
"2018-06-03 00:00:00" 959 31395
"2018-06-04 00:00:00" 991 29393
"2018-06-05 00:00:00" 888 33152
"2018-06-06 00:00:00" 861 34426
"2018-06-07 00:00:00" 904 32626
"2018-06-08 00:00:00" 865 33636
"2018-06-09 00:00:00" 882 32313
"2018-06-10 00:00:00" 999 30147
"2018-06-11 00:00:00" 1107 27959
"2018-06-12 00:00:00" 1079 28777
"2018-06-13 00:00:00" 977 31579
"2018-06-14 00:00:00" 820 35334
"2018-06-15 00:00:00" 743 36744
"2018-06-16 00:00:00" 913 30351
"2018-06-17 00:00:00" 1187 25253
"2018-06-18 00:00:00" 1151 26034
"2018-06-19 00:00:00" 1134 27073
"2018-06-20 00:00:00" 1093 27633
"2018-06-21 00:00:00" 1132 27061
"2018-06-22 00:00:00" 1241 24698
"2018-06-23 00:00:00" 1358 22044
"2018-06-24 00:00:00" 1087 28545
"2018-06-25 00:00:00" 994 30847
"2018-06-26 00:00:00" 1003 30396
"2018-06-27 00:00:00" 1164 28630
"2018-06-28 00:00:00" 1015 30298
"2018-06-29 00:00:00" 1297 22622
"2018-06-30 00:00:00" 1137 25734
"2018-07-01 00:00:00" 919 31528
"2018-07-02 00:00:00" 1082 29340
"2018-07-03 00:00:00" 1007 29813
"2018-07-04 00:00:00" 1029 28026
"2018-07-05 00:00:00" 1408 21790
"2018-07-06 00:00:00" 1031 29230
"2018-07-07 00:00:00" 885 32354
"2018-07-08 00:00:00" 1059 27387
"2018-07-09 00:00:00" 967 30711
"2018-07-10 00:00:00" 986 30850
"2018-07-11 00:00:00" 990 29743
"2018-07-12 00:00:00" 973 29505
"2018-07-13 00:00:00" 925 31353
"2018-07-14 00:00:00" 990 28491
"2018-07-15 00:00:00" 1008 29556
"2018-07-16 00:00:00" 874 33446
"2018-07-17 00:00:00" 857 34274
"2018-07-18 00:00:00" 815 35607
"2018-07-19 00:00:00" 871 32959
"2018-07-20 00:00:00" 880 32381
"2018-07-21 00:00:00" 1232 23284
"2018-07-22 00:00:00" 1153 25053
"2018-07-23 00:00:00" 1013 29239
"2018-07-24 00:00:00" 886 33316
"2018-07-25 00:00:00" 915 32090
"2018-07-26 00:00:00" 1043 28008
"2018-07-27 00:00:00" 1047 27001
"2018-07-28 00:00:00" 997 27924
"2018-07-29 00:00:00" 1169 24725
"2018-07-30 00:00:00" 1047 28069
"2018-07-31 00:00:00" 924 31233
"2018-08-01 00:00:00" 818 35513
"2018-08-02 00:00:00" 856 34129
"2018-08-03 00:00:00" 799 35404
"2018-08-04 00:00:00" 843 33380
"2018-08-05 00:00:00" 821 34866
"2018-08-06 00:00:00" 842 34862
"2018-08-07 00:00:00" 743 38944
"2018-08-08 00:00:00" 766 38200
"2018-08-09 00:00:00" 840 35654
"2018-08-10 00:00:00" 1077 26835
"2018-08-11 00:00:00" 970 28610
"2018-08-12 00:00:00" 944 31003
"2018-08-13 00:00:00" 856 34331
"2018-08-14 00:00:00" 847 34566
"2018-08-15 00:00:00" 814 34711
"2018-08-16 00:00:00" 721 38824
"2018-08-17 00:00:00" 1046 27777
"2018-08-18 00:00:00" 971 28776
"2018-08-19 00:00:00" 909 31317
"2018-08-20 00:00:00" 808 35135
"2018-08-21 00:00:00" 1072 26655
"2018-08-22 00:00:00" 1240 23338
"2018-08-23 00:00:00" 1060 27732
"2018-08-24 00:00:00" 1060 28925
"2018-08-25 00:00:00" 1073 27651
"2018-08-26 00:00:00" 996 30347
"2018-08-27 00:00:00" 1032 28221
"2018-08-28 00:00:00" 1022 28653
"2018-08-29 00:00:00" 822 35263
"2018-08-30 00:00:00" 752 38699
"2018-08-31 00:00:00" 980 30704
"2018-09-01 00:00:00" 800 35480
"2018-09-02 00:00:00" 991 29171
"2018-09-03 00:00:00" 794 35076
"2018-09-04 00:00:00" 866 33144
"2018-09-05 00:00:00" 796 35393
"2018-09-06 00:00:00" 730 37629
"2018-09-07 00:00:00" 750 36538
"2018-09-08 00:00:00" 904 29889
"2018-09-09 00:00:00" 841 33071
"2018-09-10 00:00:00" 815 34149
"2018-09-11 00:00:00" 835 33564
"2018-09-12 00:00:00" 744 36896
"2018-09-13 00:00:00" 709 39309
"2018-09-14 00:00:00" 821 34026
"2018-09-15 00:00:00" 956 28923
"2018-09-16 00:00:00" 960 29812
"2018-09-17 00:00:00" 934 30348
"2018-09-18 00:00:00" 777 35130
"2018-09-19 00:00:00" 785 34958
"2018-09-20 00:00:00" 717 37043
"2018-09-21 00:00:00" 813 32495
"2018-09-22 00:00:00" 857 30918
"2018-09-23 00:00:00" 1092 25689
"2018-09-24 00:00:00" 744 34811
"2018-09-25 00:00:00" 749 36716
"2018-09-26 00:00:00" 743 37081
"2018-09-27 00:00:00" 745 36664
"2018-09-28 00:00:00" 722 36870
"2018-09-29 00:00:00" 778 33398
"2018-09-30 00:00:00" 842 33442
"2018-10-01 00:00:00" 815 33788
"2018-10-02 00:00:00" 940 29930
"2018-10-03 00:00:00" 907 31504
"2018-10-04 00:00:00" 814 35317
"2018-10-05 00:00:00" 863 32261
"2018-10-06 00:00:00" 816 33883
"2018-10-07 00:00:00" 989 29608
"2018-10-08 00:00:00" 861 32159
"2018-10-09 00:00:00" 818 34174
"2018-10-10 00:00:00" 852 33158
"2018-10-11 00:00:00" 852 32603
"2018-10-12 00:00:00" 882 31570
"2018-10-13 00:00:00" 991 27533
"2018-10-14 00:00:00" 958 29828
"2018-10-15 00:00:00" 810 34398
"2018-10-16 00:00:00" 910 31161
"2018-10-17 00:00:00" 839 33536
"2018-10-18 00:00:00" 815 33889
"2018-10-19 00:00:00" 989 28795
"2018-10-20 00:00:00" 999 27714
"2018-10-21 00:00:00" 1082 26373
"2018-10-22 00:00:00" 956 29817
"2018-10-23 00:00:00" 1201 24491
"2018-10-24 00:00:00" 1209 24557
"2018-10-25 00:00:00" 1211 23803
"2018-10-26 00:00:00" 1360 20586
"2018-10-27 00:00:00" 1078 25361
"2018-10-28 00:00:00" 970 30152
"2018-10-29 00:00:00" 1343 21866
"2018-10-30 00:00:00" 900 30745
"2018-10-31 00:00:00" 798 34023
"2018-11-01 00:00:00" 824 33074
"2018-11-02 00:00:00" 829 33611
"2018-11-03 00:00:00" 944 28777
"2018-11-04 00:00:00" 915 30129
"2018-11-05 00:00:00" 808 33250
"2018-11-06 00:00:00" 1064 28293
"2018-11-07 00:00:00" 824 34190
"2018-11-08 00:00:00" 943 31057
"2018-11-09 00:00:00" 803 35019
"2018-11-10 00:00:00" 780 35923
"2018-11-11 00:00:00" 815 35082
"2018-11-12 00:00:00" 713 39107
"2018-11-13 00:00:00" 702 39336
"2018-11-14 00:00:00" 704 40640
"2018-11-15 00:00:00" 803 34588
"2018-11-16 00:00:00" 693 38055
"2018-11-17 00:00:00" 1083 25012
"2018-11-18 00:00:00" 899 30466
"2018-11-19 00:00:00" 908 30315
"2018-11-20 00:00:00" 1006 27723
"2018-11-21 00:00:00" 821 32867
"2018-11-22 00:00:00" 838 30770
"2018-11-23 00:00:00" 1000 26048
"2018-11-24 00:00:00" 907 29725
"2018-11-25 00:00:00" 923 29876
"2018-11-26 00:00:00" 806 33733
"2018-11-27 00:00:00" 817 32968
"2018-11-28 00:00:00" 886 32271
"2018-11-29 00:00:00" 749 35714
"2018-11-30 00:00:00" 862 30815
"2018-12-01 00:00:00" 916 32035
"2018-12-02 00:00:00" 1048 28396
"2018-12-03 00:00:00" 1074 27293
"2018-12-04 00:00:00" 841 33749
"2018-12-05 00:00:00" 823 34639
"2018-12-06 00:00:00" 816 33224
"2018-12-07 00:00:00" 894 30278
"2018-12-08 00:00:00" 1148 23605
"2018-12-09 00:00:00" 1797 16795
"2018-12-10 00:00:00" 1081 26857
"2018-12-11 00:00:00" 1112 26237
"2018-12-12 00:00:00" 968 31588
"2018-12-13 00:00:00" 1012 28049
"2018-12-14 00:00:00" 1086 28007
"2018-12-15 00:00:00" 1050 26599
"2018-12-16 00:00:00" 1144 25001
"2018-12-17 00:00:00" 1026 27209
"2018-12-18 00:00:00" 976 28484
"2018-12-19 00:00:00" 1091 25826
"2018-12-20 00:00:00" 1016 27655
"2018-12-21 00:00:00" 1240 23265
"2018-12-22 00:00:00" 1368 20713
"2018-12-23 00:00:00" 1334 20981
"2018-12-24 00:00:00" 1302 20893
"2018-12-25 00:00:00" 1329 20707
"2018-12-26 00:00:00" 1213 22175
"2018-12-27 00:00:00" 1207 22895
"2018-12-28 00:00:00" 1222 24767
"2018-12-29 00:00:00" 1385 20993
"2018-12-30 00:00:00" 1318 21970
"2018-12-31 00:00:00" 1226 25456
"2019-01-01 00:00:00" 1175 24178
"2019-01-02 00:00:00" 1145 24949
"2019-01-03 00:00:00" 1194 24328
"2019-01-04 00:00:00" 1214 24284
"2019-01-05 00:00:00" 1238 24510
"2019-01-06 00:00:00" 1521 20908
"2019-01-07 00:00:00" 1456 21392
